series_id,timestep,dim_0,label
0,0,-0.11252183,1
0,1,-2.8272038,1
0,2,-3.7738969,1
0,3,-4.3497511,1
0,4,-4.376041,1
0,5,-3.4749863,1
0,6,-2.1814082,1
0,7,-1.8182865,1
0,8,-1.2505219,1
0,9,-0.47749208,1
0,10,-0.36380791,1
0,11,-0.49195659,1
0,12,-0.42185509,1
0,13,-0.30920086,1
0,14,-0.4959387,1
0,15,-0.34211867,1
0,16,-0.35533627,1
0,17,-0.36791303,1
0,18,-0.31650279,1
0,19,-0.41237405,1
0,20,-0.47167181,1
0,21,-0.41345783,1
0,22,-0.36461703,1
0,23,-0.44929829,1
0,24,-0.47141866,1
0,25,-0.42477658,1
0,26,-0.46251673,1
0,27,-0.55247236,1
0,28,-0.47537519,1
0,29,-0.6942,1
0,30,-0.7018681,1
0,31,-0.59381178,1
0,32,-0.66068415,1
0,33,-0.71383066,1
0,34,-0.76980688,1
0,35,-0.67228161,1
0,36,-0.65367605,1
0,37,-0.63940562,1
0,38,-0.55930228,1
0,39,-0.59167032,1
0,40,-0.49322332,1
0,41,-0.46305183,1
0,42,-0.30164382,1
0,43,-0.23273401,1
0,44,-0.12505488,1
0,45,-0.15394314,1
0,46,-0.024357404,1
0,47,-0.065608758,1
0,48,0.034999258,1
0,49,0.061935219,1
0,50,0.07119542,1
0,51,0.12392505,1
0,52,0.10312371,1
0,53,0.22522849,1
0,54,0.12868305,1
0,55,0.30248315,1
0,56,0.25727621,1
0,57,0.19635161,1
0,58,0.17938297,1
0,59,0.24472863,1
0,60,0.34121687,1
0,61,0.32820441,1
0,62,0.40604169,1
0,63,0.44660507,1
0,64,0.42406823,1
0,65,0.48151204,1
0,66,0.4778438,1
0,67,0.62408259,1
0,68,0.57458456,1
0,69,0.59801319,1
0,70,0.5645919,1
0,71,0.607979,1
0,72,0.62063457,1
0,73,0.65625291,1
0,74,0.68474806,1
0,75,0.69427284,1
0,76,0.66558377,1
0,77,0.57579577,1
0,78,0.63813479,1
0,79,0.61491695,1
0,80,0.56908343,1
0,81,0.46857572,1
0,82,0.44281777,1
0,83,0.46827436,1
0,84,0.43249295,1
0,85,0.40795792,1
0,86,0.41862256,1
0,87,0.36253075,1
0,88,0.41095901,1
0,89,0.47166633,1
0,90,0.37216676,1
0,91,0.33787543,1
0,92,0.22140511,1
0,93,0.27399747,1
0,94,0.29866408,1
0,95,0.26356357,1
0,96,0.34256352,1
0,97,0.41950529,1
0,98,0.58660736,1
0,99,0.86062387,1
0,100,1.1733446,1
0,101,1.2581791,1
0,102,1.4337887,1
0,103,1.7005334,1
0,104,1.9990431,1
0,105,2.1253411,1
0,106,1.9932907,1
0,107,1.9322463,1
0,108,1.7974367,1
0,109,1.5222839,1
0,110,1.2511679,1
0,111,0.99873034,1
0,112,0.48372242,1
0,113,0.023132292,1
0,114,-0.19491383,1
0,115,-0.22091729,1
0,116,-0.24373668,1
0,117,-0.25469462,1
0,118,-0.29113555,1
0,119,-0.25649034,1
0,120,-0.22787425,1
0,121,-0.32242276,1
0,122,-0.28928586,1
0,123,-0.31816951,1
0,124,-0.36365359,1
0,125,-0.39345584,1
0,126,-0.26641886,1
0,127,-0.25682316,1
0,128,-0.28869399,1
0,129,-0.16233755,1
0,130,0.16034772,1
0,131,0.79216787,1
0,132,0.93354122,1
0,133,0.79695779,1
0,134,0.57862066,1
0,135,0.2577399,1
0,136,0.22807718,1
0,137,0.12343082,1
0,138,0.92528624,1
0,139,0.19313742,1
0,140,-1.1008778,1
0,141,-3.9968398,1
0,142,-4.2858426,1
0,143,-4.5065789,1
0,144,-4.0223767,1
0,145,-3.2343676,1
0,146,-1.5661258,1
0,147,-0.99225766,1
0,148,-0.75467971,1
0,149,0.042321173,1
0,150,0.14895093,1
0,151,0.18352707,1
0,152,0.29487608,1
0,153,0.19023267,1
0,154,0.235575,1
0,155,0.25348712,1
0,156,0.2217424,1
0,157,0.050233259,1
0,158,0.17804214,1
0,159,0.13956318,1
0,160,0.046794433,1
0,161,0.043007139,1
0,162,0.10654432,1
0,163,0.012654003,1
0,164,0.0039948539,1
0,165,0.045724179,1
0,166,-0.045999362,1
0,167,-0.072666959,1
0,168,-0.071077909,1
0,169,-0.15386649,1
0,170,-0.22725443,1
0,171,-0.2492697,1
0,172,-0.25348935,1
0,173,-0.33283516,1
0,174,-0.26432996,1
0,175,-0.34582525,1
0,176,-0.31078107,1
0,177,-0.33415978,1
0,178,-0.30617791,1
0,179,-0.17456252,1
0,180,-0.20616017,1
0,181,-0.22447967,1
0,182,-0.048683931,1
0,183,-0.019621159,1
0,184,0.094805186,1
0,185,0.11678639,1
0,186,0.18518592,1
0,187,0.23052577,1
0,188,0.13802707,1
0,189,0.24442554,1
0,190,0.27169477,1
0,191,0.25900331,1
0,192,0.26920166,1
0,193,0.12706463,1
0,194,0.20207339,1
0,195,0.25598343,1
0,196,0.15311526,1
0,197,0.21021583,1
0,198,0.19108187,1
0,199,0.19092702,1
0,200,0.21051006,1
0,201,0.20710764,1
0,202,0.20488835,1
0,203,0.20086474,1
0,204,0.34691963,1
0,205,0.3480019,1
0,206,0.25453726,1
0,207,0.33197465,1
0,208,0.3566903,1
0,209,0.34992982,1
0,210,0.43037963,1
0,211,0.46750163,1
0,212,0.48606309,1
0,213,0.4031884,1
0,214,0.47895569,1
0,215,0.39739177,1
0,216,0.46412003,1
0,217,0.45179539,1
0,218,0.36136121,1
0,219,0.3798309,1
0,220,0.34278528,1
0,221,0.39910656,1
0,222,0.3875084,1
0,223,0.25570346,1
0,224,0.28403408,1
0,225,0.28499257,1
0,226,0.25010809,1
0,227,0.17303626,1
0,228,0.14942257,1
0,229,0.141685,1
0,230,0.22226096,1
0,231,0.17284705,1
0,232,0.15077932,1
0,233,0.17656601,1
0,234,0.28094204,1
0,235,0.48993901,1
0,236,0.66088884,1
0,237,0.8931933,1
0,238,1.0269972,1
0,239,1.2023937,1
0,240,1.5574096,1
0,241,1.8084277,1
0,242,2.1643459,1
0,243,2.0707467,1
0,244,1.9036136,1
0,245,1.7644552,1
0,246,1.5077694,1
0,247,1.2934277,1
0,248,0.89456215,1
0,249,0.57801575,1
0,250,0.24434305,1
0,251,-0.28644345,1
0,252,-0.51588134,1
0,253,-0.73270694,1
0,254,-0.83246547,1
0,255,-0.80331806,1
0,256,-0.83625248,1
0,257,-0.77786456,1
0,258,-0.77475301,1
0,259,-0.73340394,1
0,260,-0.72138631,1
0,261,-0.83209517,1
0,262,-0.71198159,1
0,263,-0.7518673,1
0,264,-0.7577196,1
0,265,-0.85311967,1
0,266,-0.76698841,1
0,267,-0.68816064,1
0,268,-0.51992349,1
0,269,0.039406169,1
0,270,0.56032676,1
0,271,0.53835583,1
0,272,0.65688079,1
0,273,0.78748958,1
0,274,0.72404623,1
0,275,0.55578372,1
0,276,0.47633335,1
0,277,0.77381971,1
0,278,1.1196209,1
0,279,-1.4362499,1
0,280,-0.56708802,1
0,281,-2.5934502,1
0,282,-3.8742297,1
0,283,-4.5840949,1
0,284,-4.1874487,1
0,285,-3.1514617,1
0,286,-1.7429402,1
0,287,-1.4906585,1
0,288,-1.1835803,1
0,289,-0.39422869,1
0,290,-0.28289676,1
0,291,-0.35692576,1
0,292,-0.28729745,1
0,293,-0.3994889,1
0,294,-0.47324409,1
0,295,-0.37904758,1
0,296,-0.39903903,1
0,297,-0.17859449,1
0,298,-0.33952226,1
0,299,-0.49844722,1
0,300,-0.33725108,1
0,301,-0.42547978,1
0,302,-0.42395228,1
0,303,-0.46317045,1
0,304,-0.49325315,1
0,305,-0.54974899,1
0,306,-0.52983109,1
0,307,-0.53093478,1
0,308,-0.5023649,1
0,309,-0.41736768,1
0,310,-0.52634573,1
0,311,-0.47100496,1
0,312,-0.67678428,1
0,313,-0.89861193,1
0,314,-0.61057104,1
0,315,-0.5301643,1
0,316,-0.76567438,1
0,317,-0.58193724,1
0,318,-0.53784761,1
0,319,-0.55638598,1
0,320,-0.43802347,1
0,321,-0.43624802,1
0,322,-0.40011375,1
0,323,-0.13498651,1
0,324,-0.23934677,1
0,325,-0.12024439,1
0,326,-0.0019714041,1
0,327,0.28500048,1
0,328,0.31564573,1
0,329,0.10736401,1
0,330,0.10952148,1
0,331,0.15807843,1
0,332,0.29189779,1
0,333,0.2612945,1
0,334,0.18840714,1
0,335,0.14065136,1
0,336,0.26336542,1
0,337,0.28720706,1
0,338,0.31431725,1
0,339,0.17794238,1
0,340,0.13829008,1
0,341,0.32106868,1
0,342,0.45816774,1
0,343,0.25191615,1
0,344,0.26135293,1
0,345,0.27748753,1
0,346,0.29879325,1
0,347,0.45907535,1
0,348,0.41914662,1
0,349,0.52050892,1
0,350,0.53776119,1
0,351,0.60321071,1
0,352,0.47563399,1
0,353,0.52169287,1
0,354,0.73524831,1
0,355,0.72954106,1
0,356,0.71852334,1
0,357,0.49843316,1
0,358,0.54544098,1
0,359,0.60482668,1
0,360,0.52129639,1
0,361,0.39438062,1
0,362,0.40502023,1
0,363,0.59756305,1
0,364,0.53113004,1
0,365,0.3776509,1
0,366,0.46770093,1
0,367,0.45756933,1
0,368,0.34111609,1
0,369,0.40791318,1
0,370,0.45912699,1
0,371,0.40393661,1
0,372,0.2981912,1
0,373,0.46110053,1
0,374,0.6646591,1
0,375,0.58775722,1
0,376,0.70132474,1
0,377,0.91720459,1
0,378,1.2479873,1
0,379,1.5055679,1
0,380,1.6401054,1
0,381,1.8109878,1
0,382,2.1853978,1
0,383,2.2629849,1
0,384,2.0529202,1
0,385,1.890488,1
0,386,1.793033,1
0,387,1.5647844,1
0,388,1.2346189,1
0,389,0.90030201,1
0,390,0.55195714,1
0,391,0.25822163,1
0,392,-0.128587,1
0,393,-0.092585287,1
0,394,-0.16860627,1
0,395,-0.4959888,1
0,396,-0.39503448,1
0,397,-0.32823831,1
0,398,-0.44813804,1
0,399,-0.26823009,1
0,400,-0.45641485,1
0,401,-0.35786694,1
0,402,-0.31750833,1
0,403,-0.43411223,1
0,404,-0.54920348,1
0,405,-0.32461549,1
0,406,-0.26808235,1
0,407,-0.22038421,1
0,408,-0.11742905,1
0,409,0.61405916,1
0,410,1.2848254,1
0,411,0.88607336,1
0,412,0.5314524,1
0,413,0.31137684,1
0,414,-0.021918959,1
0,415,-0.71368344,1
0,416,-0.53219671,1
0,417,0.32109663,1
0,418,0.90422673,1
0,419,-0.42179659,1
0,420,0.49047253,1
0,421,-1.9144071,1
0,422,-3.6163638,1
0,423,-4.3188235,1
0,424,-4.2680158,1
0,425,-3.8811104,1
0,426,-2.9932802,1
0,427,-1.6711314,1
0,428,-1.3338845,1
0,429,-0.96562916,1
0,430,-0.18331859,1
0,431,-0.10165662,1
0,432,-0.27387437,1
0,433,-0.12781761,1
0,434,-0.19598345,1
0,435,-0.21352292,1
0,436,-0.17647269,1
0,437,-0.1569316,1
0,438,-0.14917231,1
0,439,-0.18150997,1
0,440,-0.18007406,1
0,441,-0.24615133,1
0,442,-0.27425986,1
0,443,-0.14095962,1
0,444,-0.27744877,1
0,445,-0.38254906,1
0,446,-0.31193709,1
0,447,-0.36009264,1
0,448,-0.40596818,1
0,449,-0.57143343,1
0,450,-0.52410561,1
0,451,-0.53788646,1
0,452,-0.60677754,1
0,453,-0.66144617,1
0,454,-0.68337478,1
0,455,-0.74668256,1
0,456,-0.63566206,1
0,457,-0.62523095,1
0,458,-0.54009375,1
0,459,-0.67499495,1
0,460,-0.65394896,1
0,461,-0.56691641,1
0,462,-0.52404493,1
0,463,-0.41471114,1
0,464,-0.38778691,1
0,465,-0.28443735,1
0,466,-0.07274462,1
0,467,-0.16012546,1
0,468,-0.092159535,1
0,469,0.067164899,1
0,470,0.081472141,1
0,471,0.056181748,1
0,472,0.024692229,1
0,473,0.07439508,1
0,474,0.15288791,1
0,475,0.091033246,1
0,476,0.11015952,1
0,477,0.11727766,1
0,478,0.11383231,1
0,479,0.14180793,1
0,480,0.27149224,1
0,481,0.24974277,1
0,482,0.19760783,1
0,483,0.24393891,1
0,484,0.38653837,1
0,485,0.30001951,1
0,486,0.30980097,1
0,487,0.34466985,1
0,488,0.38970986,1
0,489,0.44285015,1
0,490,0.43342958,1
0,491,0.54871006,1
0,492,0.52503659,1
0,493,0.52197499,1
0,494,0.62395373,1
0,495,0.5491593,1
0,496,0.6691888,1
0,497,0.62992818,1
0,498,0.53957342,1
0,499,0.59928297,1
0,500,0.49785318,1
0,501,0.63809316,1
0,502,0.61173698,1
0,503,0.49190824,1
0,504,0.57394864,1
0,505,0.51624467,1
0,506,0.57262973,1
0,507,0.48459064,1
0,508,0.37438176,1
0,509,0.46177251,1
0,510,0.41466066,1
0,511,0.37163879,1
0,512,0.44516957,1
0,513,0.48416962,1
0,514,0.55606057,1
0,515,0.65872426,1
0,516,0.86115788,1
0,517,1.0163973,1
0,518,1.135606,1
0,519,1.216973,1
0,520,1.5530785,1
0,521,1.772155,1
0,522,2.0007688,1
0,523,1.9250032,1
0,524,1.898426,1
0,525,1.7209525,1
0,526,1.5017111,1
0,527,1.4224917,1
0,528,1.0232255,1
0,529,0.77634127,1
0,530,0.50442626,1
0,531,0.056381865,1
0,532,-0.23316061,1
0,533,-0.40638829,1
0,534,-0.327528,1
0,535,-0.460868,1
0,536,-0.40253556,1
0,537,-0.34575164,1
0,538,-0.35420649,1
0,539,-0.43995884,1
0,540,-0.42532593,1
0,541,-0.43978873,1
0,542,-0.45183526,1
0,543,-0.39592642,1
0,544,-0.44876235,1
0,545,-0.39178907,1
0,546,-0.37630746,1
0,547,-0.46106907,1
0,548,-0.25352442,1
0,549,0.21300588,1
0,550,0.4911732,1
0,551,0.35081636,1
0,552,0.49911056,1
0,553,0.60034499,1
0,554,0.8420694,1
0,555,0.95207354,1
0,556,0.99013318,1
0,557,1.0867984,1
0,558,1.403011,1
0,559,-0.38356426,1
0,560,0.80023202,1
0,561,-0.87425189,1
0,562,-2.3847613,1
0,563,-3.9732924,1
0,564,-4.3382241,1
0,565,-3.8024222,1
0,566,-2.5345096,1
0,567,-1.7834233,1
0,568,-1.5944504,1
0,569,-0.75319899,1
0,570,-0.29810663,1
0,571,-0.42892797,1
0,572,-0.49135079,1
0,573,-0.36130424,1
0,574,-0.33929554,1
0,575,-0.32495154,1
0,576,-0.29011333,1
0,577,-0.36305106,1
0,578,-0.52568383,1
0,579,-0.59742301,1
0,580,-0.57552317,1
0,581,-0.56750306,1
0,582,-0.50455484,1
0,583,-0.61840616,1
0,584,-0.68281354,1
0,585,-0.74384873,1
0,586,-0.81558784,1
0,587,-0.82690193,1
0,588,-0.78237433,1
0,589,-0.92946196,1
0,590,-0.99967167,1
0,591,-1.0609695,1
0,592,-1.0078773,1
0,593,-1.0287349,1
0,594,-1.1226293,1
0,595,-1.0286499,1
0,596,-1.0465146,1
0,597,-1.0633724,1
0,598,-1.1224228,1
0,599,-0.98324201,1
0,600,-0.85586525,1
0,601,-0.791266,1
0,602,-0.58875425,1
0,603,-0.51830558,1
0,604,-0.39729838,1
0,605,-0.35433285,1
0,606,-0.20742492,1
0,607,-0.088266017,1
0,608,-0.16873361,1
0,609,-0.067592085,1
0,610,-0.032772281,1
0,611,0.071899471,1
0,612,0.081485179,1
0,613,0.067225257,1
0,614,0.13271969,1
0,615,0.070240933,1
0,616,0.10043175,1
0,617,0.15041753,1
0,618,0.10988654,1
0,619,0.14886026,1
0,620,0.20874762,1
0,621,0.22823622,1
0,622,0.27366422,1
0,623,0.29952441,1
0,624,0.32706231,1
0,625,0.24231412,1
0,626,0.38610522,1
0,627,0.41908722,1
0,628,0.43971785,1
0,629,0.48895381,1
0,630,0.54171511,1
0,631,0.57386922,1
0,632,0.63355476,1
0,633,0.41167103,1
0,634,0.44091729,1
0,635,0.5887054,1
0,636,0.53086502,1
0,637,0.55896452,1
0,638,0.60687423,1
0,639,0.61472869,1
0,640,0.53777156,1
0,641,0.59929423,1
0,642,0.64046303,1
0,643,0.56839906,1
0,644,0.54471048,1
0,645,0.55795891,1
0,646,0.53776149,1
0,647,0.47229245,1
0,648,0.46659561,1
0,649,0.63441689,1
0,650,0.42517487,1
0,651,0.42077721,1
0,652,0.44052297,1
0,653,0.36102802,1
0,654,0.35929943,1
0,655,0.32136632,1
0,656,0.42132549,1
0,657,0.50512195,1
0,658,0.67748866,1
0,659,0.90869284,1
0,660,0.98223031,1
0,661,1.1553635,1
0,662,1.3362539,1
0,663,1.6275344,1
0,664,1.7175939,1
0,665,1.6964865,1
0,666,1.7416856,1
0,667,1.674078,1
0,668,1.5469278,1
0,669,1.3317385,1
0,670,1.1101682,1
0,671,0.92221037,1
0,672,0.52177665,1
0,673,0.15485176,1
0,674,-0.1238607,1
0,675,-0.20299778,1
0,676,-0.24795602,1
0,677,-0.21912177,1
0,678,-0.2146952,1
0,679,-0.31921472,1
0,680,-0.19859713,1
0,681,-0.15161786,1
0,682,-0.12959259,1
0,683,-0.074938934,1
0,684,-0.19680704,1
0,685,-0.17479482,1
0,686,-0.20883265,1
0,687,-0.21075375,1
0,688,-0.10048537,1
0,689,0.19744621,1
0,690,0.966606,1
0,691,1.1488838,1
0,692,0.95843425,1
0,693,1.0590254,1
0,694,1.3716823,1
0,695,1.2773918,1
0,696,0.96030393,1
0,697,0.97101956,1
0,698,1.6143924,1
0,699,1.4214563,1
0,700,-1.5076736,1
0,701,-3.57455,1
0,702,-4.4780109,1
0,703,-4.4082752,1
0,704,-3.3212415,1
0,705,-2.1051715,1
0,706,-1.4810482,1
0,707,-1.3013622,1
0,708,-0.4982396,1
0,709,-0.2869283,1
0,710,-0.39003094,1
0,711,-0.26384158,1
0,712,-0.31802419,1
0,713,-0.18591558,1
0,714,-0.26978996,1
0,715,-0.32224541,1
0,716,-0.30925306,1
0,717,-0.39110135,1
0,718,-0.3032594,1
0,719,-0.31929186,1
0,720,-0.40791759,1
0,721,-0.42157915,1
0,722,-0.48138035,1
0,723,-0.44751848,1
0,724,-0.5248504,1
0,725,-0.46911847,1
0,726,-0.58260667,1
0,727,-0.67903585,1
0,728,-0.65205179,1
0,729,-0.84685281,1
0,730,-0.76668159,1
0,731,-0.73514832,1
0,732,-0.78846458,1
0,733,-0.85127649,1
0,734,-0.83700984,1
0,735,-0.84350094,1
0,736,-0.82704168,1
0,737,-0.87806084,1
0,738,-0.75509458,1
0,739,-0.80992101,1
0,740,-0.67941539,1
0,741,-0.58341796,1
0,742,-0.45742032,1
0,743,-0.37778498,1
0,744,-0.36062856,1
0,745,-0.23172648,1
0,746,-0.2368416,1
0,747,-0.047710649,1
0,748,-0.052632422,1
0,749,-0.074354922,1
0,750,-0.094408878,1
0,751,-0.082684152,1
0,752,0.0067543086,1
0,753,-0.082925194,1
0,754,-0.061498973,1
0,755,0.021666852,1
0,756,-0.04082262,1
0,757,0.038088286,1
0,758,0.04111276,1
0,759,-0.10716567,1
0,760,0.034701332,1
0,761,0.085703804,1
0,762,0.12185632,1
0,763,0.08889131,1
0,764,0.18567768,1
0,765,0.22990726,1
0,766,0.18320411,1
0,767,0.28684534,1
0,768,0.27956195,1
0,769,0.4185915,1
0,770,0.39460935,1
0,771,0.42764032,1
0,772,0.44484387,1
0,773,0.46829876,1
0,774,0.51542459,1
0,775,0.63629527,1
0,776,0.63325173,1
0,777,0.64466005,1
0,778,0.62754545,1
0,779,0.53004067,1
0,780,0.4928233,1
0,781,0.47920823,1
0,782,0.41335998,1
0,783,0.47562381,1
0,784,0.43649354,1
0,785,0.40684174,1
0,786,0.4433003,1
0,787,0.31768387,1
0,788,0.3613207,1
0,789,0.3610005,1
0,790,0.24142577,1
0,791,0.318115,1
0,792,0.3251511,1
0,793,0.47830471,1
0,794,0.47607975,1
0,795,0.5320627,1
0,796,0.79548456,1
0,797,0.9451694,1
0,798,1.104937,1
0,799,1.290653,1
0,800,1.4892172,1
0,801,1.7553005,1
0,802,1.9609181,1
0,803,2.0424366,1
0,804,1.902829,1
0,805,1.9028747,1
0,806,1.7580745,1
0,807,1.425782,1
0,808,1.2102201,1
0,809,0.92839739,1
0,810,0.64126402,1
0,811,0.17552516,1
0,812,-0.10691014,1
0,813,-0.13204268,1
0,814,-0.1658357,1
0,815,-0.098570541,1
0,816,-0.26602195,1
0,817,-0.2372939,1
0,818,-0.13768778,1
0,819,-0.10067464,1
0,820,-0.10749888,1
0,821,-0.2103621,1
0,822,-0.13010391,1
0,823,-0.10763115,1
0,824,-0.16114587,1
0,825,-0.10131627,1
0,826,-0.095255496,1
0,827,-0.069172156,1
0,828,0.15487779,1
0,829,0.69565622,1
0,830,1.2149308,1
0,831,1.0890684,1
0,832,0.98336855,1
0,833,1.0141238,1
0,834,0.9526287,1
0,835,0.749326,1
0,836,1.0070757,1
0,837,1.6349896,1
0,838,1.4933655,1
0,839,-0.78313438,1
0,840,-0.297161,1
0,841,-2.7666349,1
0,842,-4.1021848,1
0,843,-4.5896691,1
0,844,-4.2193569,1
0,845,-3.6504434,1
0,846,-2.3005176,1
0,847,-1.2939171,1
0,848,-1.0656583,1
0,849,-0.4905204,1
0,850,0.050751439,1
0,851,-0.076647389,1
0,852,-0.094646854,1
0,853,-0.15817964,1
0,854,-0.068691701,1
0,855,-0.14083211,1
0,856,-0.069176949,1
0,857,-0.13427557,1
0,858,-0.059198867,1
0,859,-0.13137923,1
0,860,-0.18120811,1
0,861,-0.21596475,1
0,862,-0.21755404,1
0,863,-0.25406003,1
0,864,-0.33124688,1
0,865,-0.30492329,1
0,866,-0.2737944,1
0,867,-0.34793484,1
0,868,-0.38742898,1
0,869,-0.4040032,1
0,870,-0.42504802,1
0,871,-0.50769997,1
0,872,-0.58216786,1
0,873,-0.53291699,1
0,874,-0.637873,1
0,875,-0.65593804,1
0,876,-0.54965323,1
0,877,-0.68673176,1
0,878,-0.58303665,1
0,879,-0.63651154,1
0,880,-0.62084931,1
0,881,-0.468289,1
0,882,-0.42352427,1
0,883,-0.32470491,1
0,884,-0.26358651,1
0,885,-0.12755785,1
0,886,0.011174656,1
0,887,0.024380947,1
0,888,0.08477279,1
0,889,0.059935601,1
0,890,0.16447101,1
0,891,0.1622137,1
0,892,0.12599133,1
0,893,0.14362743,1
0,894,0.078258906,1
0,895,0.17851919,1
0,896,0.12659749,1
0,897,0.17504434,1
0,898,0.1694566,1
0,899,0.29969735,1
0,900,0.24249451,1
0,901,0.29716945,1
0,902,0.23840226,1
0,903,0.24915624,1
0,904,0.22551958,1
0,905,0.26718444,1
0,906,0.2366261,1
0,907,0.25742585,1
0,908,0.41650766,1
0,909,0.42657605,1
0,910,0.45903586,1
0,911,0.41659532,1
0,912,0.40912708,1
0,913,0.39677707,1
0,914,0.55726867,1
0,915,0.53500713,1
0,916,0.59007557,1
0,917,0.58584409,1
0,918,0.56813068,1
0,919,0.55498601,1
0,920,0.45756205,1
0,921,0.46270393,1
0,922,0.49946994,1
0,923,0.45014046,1
0,924,0.37201043,1
0,925,0.42852068,1
0,926,0.30460405,1
0,927,0.24412519,1
0,928,0.29406742,1
0,929,0.20671765,1
0,930,0.37245704,1
0,931,0.39460372,1
0,932,0.39444908,1
0,933,0.40425396,1
0,934,0.45989803,1
0,935,0.67724204,1
0,936,0.81142429,1
0,937,0.88952757,1
0,938,1.1303855,1
0,939,1.2852143,1
0,940,1.6523744,1
0,941,1.8393372,1
0,942,1.9485002,1
0,943,1.9406907,1
0,944,1.8161016,1
0,945,1.7273154,1
0,946,1.5512273,1
0,947,1.2119247,1
0,948,1.1334151,1
0,949,0.74591889,1
0,950,0.36093266,1
0,951,-0.12851839,1
0,952,-0.39421797,1
0,953,-0.43660141,1
0,954,-0.50647651,1
0,955,-0.4551471,1
0,956,-0.45786634,1
0,957,-0.54529921,1
0,958,-0.50609683,1
0,959,-0.3765287,1
0,960,-0.45780449,1
0,961,-0.49545976,1
0,962,-0.45869326,1
0,963,-0.33281149,1
0,964,-0.41033407,1
0,965,-0.40651848,1
0,966,-0.33723175,1
0,967,-0.38647852,1
0,968,-0.082580102,1
0,969,0.2203161,1
0,970,0.59497827,1
0,971,0.58177878,1
0,972,0.68440603,1
0,973,0.91165083,1
0,974,0.97948323,1
0,975,1.0534584,1
0,976,0.97478703,1
0,977,1.1104073,1
0,978,1.2881654,1
0,979,-0.82338562,1
0,980,0.44676853,1
0,981,-1.5073974,1
0,982,-3.1874679,1
0,983,-4.5074621,1
0,984,-4.6042007,1
0,985,-3.636115,1
0,986,-2.3116038,1
0,987,-1.5977275,1
0,988,-1.3624498,1
0,989,-0.66921633,1
0,990,-0.17339277,1
0,991,-0.20511622,1
0,992,-0.23078667,1
0,993,-0.17712137,1
0,994,-0.23850955,1
0,995,-0.20507877,1
0,996,-0.23054363,1
0,997,-0.20915931,1
0,998,-0.29293956,1
0,999,-0.25506852,1
0,1000,-0.2539899,1
0,1001,-0.35197992,1
0,1002,-0.42773929,1
0,1003,-0.4659477,1
0,1004,-0.46028596,1
0,1005,-0.4750621,1
0,1006,-0.44974621,1
0,1007,-0.56228003,1
0,1008,-0.532781,1
0,1009,-0.63579716,1
0,1010,-0.63658771,1
0,1011,-0.749548,1
0,1012,-0.80678463,1
0,1013,-0.69629187,1
0,1014,-0.85528234,1
0,1015,-0.8962553,1
0,1016,-0.90567196,1
0,1017,-0.90845622,1
0,1018,-0.83008356,1
0,1019,-0.83883747,1
0,1020,-0.69212508,1
0,1021,-0.64576927,1
0,1022,-0.48887225,1
0,1023,-0.40645909,1
0,1024,-0.35637924,1
0,1025,-0.22657834,1
0,1026,-0.20574481,1
0,1027,-0.071802463,1
0,1028,-0.066372326,1
0,1029,0.0075019777,1
0,1030,0.030631739,1
0,1031,0.020969858,1
0,1032,0.033968155,1
0,1033,0.16488977,1
0,1034,0.083023926,1
0,1035,0.045058956,1
0,1036,-0.0047666788,1
0,1037,0.12381566,1
0,1038,0.10804433,1
0,1039,0.073935543,1
0,1040,0.11256906,1
0,1041,0.055672868,1
0,1042,0.12375141,1
0,1043,0.22032513,1
0,1044,0.23411098,1
0,1045,0.32279232,1
0,1046,0.21513818,1
0,1047,0.33896743,1
0,1048,0.33478514,1
0,1049,0.32808378,1
0,1050,0.51228301,1
0,1051,0.49876823,1
0,1052,0.60277392,1
0,1053,0.65327531,1
0,1054,0.68093211,1
0,1055,0.72841436,1
0,1056,0.68048301,1
0,1057,0.6405041,1
0,1058,0.6205017,1
0,1059,0.65800821,1
0,1060,0.71363176,1
0,1061,0.6216716,1
0,1062,0.48816176,1
0,1063,0.45528345,1
0,1064,0.42458401,1
0,1065,0.50446979,1
0,1066,0.42813301,1
0,1067,0.45083786,1
0,1068,0.44836001,1
0,1069,0.38991267,1
0,1070,0.39158529,1
0,1071,0.34956959,1
0,1072,0.41467343,1
0,1073,0.47231448,1
0,1074,0.56453121,1
0,1075,0.73509325,1
0,1076,0.79975056,1
0,1077,1.1259942,1
0,1078,1.1641296,1
0,1079,1.2818475,1
0,1080,1.5527349,1
0,1081,1.6916357,1
0,1082,1.8828098,1
0,1083,1.760313,1
0,1084,1.8258701,1
0,1085,1.6193333,1
0,1086,1.3949016,1
0,1087,1.1327886,1
0,1088,0.9283516,1
0,1089,0.59884412,1
0,1090,0.22924343,1
0,1091,-0.1447077,1
0,1092,-0.27006863,1
0,1093,-0.32319297,1
0,1094,-0.34959834,1
0,1095,-0.29816321,1
0,1096,-0.25184329,1
0,1097,-0.29194076,1
0,1098,-0.41334591,1
0,1099,-0.30745492,1
0,1100,-0.33082525,1
0,1101,-0.43238918,1
0,1102,-0.28993487,1
0,1103,-0.32493274,1
0,1104,-0.30928759,1
0,1105,-0.2525674,1
0,1106,-0.28258614,1
0,1107,-0.16934497,1
0,1108,0.25872903,1
0,1109,0.89662717,1
0,1110,1.0882033,1
0,1111,1.0013058,1
0,1112,1.2920592,1
0,1113,1.3786665,1
0,1114,1.0147645,1
0,1115,0.82079301,1
0,1116,1.034388,1
0,1117,1.2584334,1
0,1118,0.96121472,1
0,1119,-0.99947589,1
0,1120,0.087630577,1
0,1121,-1.7534903,1
0,1122,-3.3044731,1
0,1123,-4.7046566,1
0,1124,-4.6864151,1
0,1125,-3.6118167,1
0,1126,-2.2672676,1
0,1127,-1.570893,1
0,1128,-1.4177903,1
0,1129,-0.50078809,1
0,1130,-0.22517739,1
0,1131,-0.30883362,1
0,1132,-0.21473324,1
0,1133,-0.21450921,1
0,1134,-0.22312107,1
0,1135,-0.26233599,1
0,1136,-0.2118159,1
0,1137,-0.29909881,1
0,1138,-0.25995633,1
0,1139,-0.31610955,1
0,1140,-0.25866848,1
0,1141,-0.28714668,1
0,1142,-0.36685535,1
0,1143,-0.30598032,1
0,1144,-0.41670806,1
0,1145,-0.40230307,1
0,1146,-0.3815541,1
0,1147,-0.51989677,1
0,1148,-0.52095179,1
0,1149,-0.59691915,1
0,1150,-0.6507003,1
0,1151,-0.67963616,1
0,1152,-0.75152681,1
0,1153,-0.72522391,1
0,1154,-0.83070065,1
0,1155,-0.80731727,1
0,1156,-0.84838836,1
0,1157,-0.74455386,1
0,1158,-0.69997298,1
0,1159,-0.75435259,1
0,1160,-0.62191821,1
0,1161,-0.53394237,1
0,1162,-0.3965959,1
0,1163,-0.22089032,1
0,1164,-0.17931625,1
0,1165,-0.0094803401,1
0,1166,-0.024018025,1
0,1167,0.041459691,1
0,1168,0.094492517,1
0,1169,0.083212059,1
0,1170,0.099031316,1
0,1171,0.045914253,1
0,1172,0.10951946,1
0,1173,0.168162,1
0,1174,0.26346944,1
0,1175,0.13610056,1
0,1176,0.15883825,1
0,1177,0.08980313,1
0,1178,0.14660419,1
0,1179,0.19676887,1
0,1180,0.26898346,1
0,1181,0.23726297,1
0,1182,0.18635578,1
0,1183,0.24141723,1
0,1184,0.27842589,1
0,1185,0.38315578,1
0,1186,0.38957693,1
0,1187,0.39354878,1
0,1188,0.57738569,1
0,1189,0.58774864,1
0,1190,0.58188293,1
0,1191,0.5449169,1
0,1192,0.65788513,1
0,1193,0.60177743,1
0,1194,0.64273411,1
0,1195,0.69906231,1
0,1196,0.6801103,1
0,1197,0.69863975,1
0,1198,0.71617522,1
0,1199,0.66862611,1
0,1200,0.6718266,1
0,1201,0.57504464,1
0,1202,0.5292125,1
0,1203,0.54333826,1
0,1204,0.60328119,1
0,1205,0.55471386,1
0,1206,0.56362046,1
0,1207,0.48903431,1
0,1208,0.44695034,1
0,1209,0.45643246,1
0,1210,0.39325248,1
0,1211,0.44143912,1
0,1212,0.44738863,1
0,1213,0.27405506,1
0,1214,0.36460866,1
0,1215,0.40121863,1
0,1216,0.44788969,1
0,1217,0.54780929,1
0,1218,0.6420901,1
0,1219,0.78832807,1
0,1220,0.74980141,1
0,1221,0.82085218,1
0,1222,0.96416033,1
0,1223,1.0618841,1
0,1224,1.3408602,1
0,1225,1.1378081,1
0,1226,0.86401264,1
0,1227,0.6839801,1
0,1228,0.62842387,1
0,1229,0.50113433,1
0,1230,0.49129218,1
0,1231,0.46193736,1
0,1232,0.32981245,1
0,1233,0.1204151,1
0,1234,-0.14196808,1
0,1235,-0.19517724,1
0,1236,-0.10265211,1
0,1237,-0.076308425,1
0,1238,-0.11651106,1
0,1239,-0.19168563,1
0,1240,-0.23429165,1
0,1241,-0.16112658,1
0,1242,-0.14536342,1
0,1243,-0.21218169,1
0,1244,-0.13568405,1
0,1245,-0.1334405,1
0,1246,-0.17007668,1
0,1247,-0.035913592,1
0,1248,0.33224263,1
0,1249,1.0632505,1
0,1250,1.575754,1
0,1251,1.7090456,1
0,1252,2.1429259,1
0,1253,2.393528,1
0,1254,1.92555,1
0,1255,1.0276237,1
0,1256,0.57345293,1
0,1257,0.19297149,1
0,1258,-0.64868286,1
0,1259,-2.4410678,1
0,1260,-0.83228111,1
0,1261,-1.7003675,1
0,1262,-2.2573013,1
0,1263,-2.8536712,1
0,1264,-2.8533008,1
0,1265,-2.7014866,1
0,1266,-2.2857261,1
0,1267,-1.555512,1
0,1268,-1.2666223,1
0,1269,-1.085957,1
0,1270,-0.69464057,1
0,1271,-0.58851692,1
0,1272,-0.66246942,1
0,1273,-0.76800441,1
0,1274,-0.7725505,1
0,1275,-0.62105407,1
0,1276,-0.61418665,1
0,1277,-0.63012434,1
0,1278,-0.66957728,1
0,1279,-0.68415362,1
0,1280,-0.69294243,1
0,1281,-0.61130156,1
0,1282,-0.64700697,1
0,1283,-0.62136212,1
0,1284,-0.6410713,1
0,1285,-0.65907019,1
0,1286,-0.62097711,1
0,1287,-0.67492061,1
0,1288,-0.66416383,1
0,1289,-0.7369427,1
0,1290,-0.76923705,1
0,1291,-0.69965708,1
0,1292,-0.80030165,1
0,1293,-0.72742332,1
0,1294,-0.75043487,1
0,1295,-0.78906542,1
0,1296,-0.73295704,1
0,1297,-0.76548658,1
0,1298,-0.69708867,1
0,1299,-0.76728083,1
0,1300,-0.71641729,1
0,1301,-0.64584327,1
0,1302,-0.57317813,1
0,1303,-0.5602558,1
0,1304,-0.61643357,1
0,1305,-0.61431553,1
0,1306,-0.55193907,1
0,1307,-0.40993954,1
0,1308,-0.46597041,1
0,1309,-0.42836411,1
0,1310,-0.42283947,1
0,1311,-0.3713889,1
0,1312,-0.39472419,1
0,1313,-0.42201833,1
0,1314,-0.35485451,1
0,1315,-0.40841286,1
0,1316,-0.42534175,1
0,1317,-0.38702144,1
0,1318,-0.40999646,1
0,1319,-0.42726131,1
0,1320,-0.38690279,1
0,1321,-0.37227239,1
0,1322,-0.38801449,1
0,1323,-0.32093223,1
0,1324,-0.36169826,1
0,1325,-0.30421592,1
0,1326,-0.2208256,1
0,1327,-0.26522743,1
0,1328,-0.25316306,1
0,1329,-0.17678608,1
0,1330,-0.18033685,1
0,1331,-0.13543422,1
0,1332,-0.10218701,1
0,1333,-0.069772168,1
0,1334,-0.012025854,1
0,1335,0.019392818,1
0,1336,0.0023502179,1
0,1337,0.025684537,1
0,1338,0.10619972,1
0,1339,0.060628283,1
0,1340,0.14100528,1
0,1341,0.098627186,1
0,1342,0.10026031,1
0,1343,0.1249692,1
0,1344,0.13151283,1
0,1345,0.15842003,1
0,1346,0.10196096,1
0,1347,0.16902623,1
0,1348,0.19830596,1
0,1349,0.16513906,1
0,1350,0.19785921,1
0,1351,0.11946397,1
0,1352,0.24410863,1
0,1353,0.36000277,1
0,1354,0.46532602,1
0,1355,0.5042099,1
0,1356,0.55611785,1
0,1357,0.68718873,1
0,1358,0.82299787,1
0,1359,0.92351214,1
0,1360,1.0769364,1
0,1361,1.1586477,1
0,1362,1.1558893,1
0,1363,1.1376925,1
0,1364,1.0217586,1
0,1365,0.91858098,1
0,1366,0.83113319,1
0,1367,0.68050602,1
0,1368,0.54029633,1
0,1369,0.46392539,1
0,1370,0.13576907,1
0,1371,0.040805901,1
0,1372,0.055551077,1
0,1373,0.018917608,1
0,1374,0.1489734,1
0,1375,0.39533782,1
0,1376,0.77973296,1
0,1377,0.94139313,1
0,1378,1.0007652,1
0,1379,0.9859304,1
0,1380,0.97372193,1
0,1381,1.0344785,1
0,1382,1.0622647,1
0,1383,1.0609783,1
0,1384,1.1161974,1
0,1385,1.2243507,1
0,1386,1.4212402,1
0,1387,1.6446545,1
0,1388,2.0071813,1
0,1389,2.1185986,1
0,1390,2.0283038,1
0,1391,2.1105038,1
0,1392,2.2036678,1
0,1393,2.2275444,1
0,1394,2.1717334,1
0,1395,2.0459377,1
0,1396,2.1263716,1
0,1397,2.1268518,1
0,1398,1.6792986,1
0,1399,0.96581366,1
0,1400,0.084430128,1
0,1401,-3.1903071,1
0,1402,-4.686175,1
0,1403,-4.5594833,1
0,1404,-4.0879723,1
0,1405,-2.6188591,1
0,1406,-1.7605895,1
0,1407,-1.5929641,1
0,1408,-0.56911653,1
0,1409,-0.1303995,1
0,1410,-0.17370458,1
0,1411,-0.15454113,1
0,1412,-0.11002092,1
0,1413,-0.099078691,1
0,1414,-0.12750212,1
0,1415,-0.15563878,1
0,1416,-0.16613496,1
0,1417,-0.18039026,1
0,1418,-0.11864333,1
0,1419,-0.14853266,1
0,1420,-0.22084811,1
0,1421,-0.21329672,1
0,1422,-0.30026262,1
0,1423,-0.34072202,1
0,1424,-0.41811977,1
0,1425,-0.51138155,1
0,1426,-0.51300763,1
0,1427,-0.60834007,1
0,1428,-0.69274586,1
0,1429,-0.73708018,1
0,1430,-0.76917735,1
0,1431,-0.71278713,1
0,1432,-0.83424775,1
0,1433,-0.81326841,1
0,1434,-0.89117252,1
0,1435,-0.88461246,1
0,1436,-0.79474086,1
0,1437,-0.80278306,1
0,1438,-0.80424269,1
0,1439,-0.76484136,1
0,1440,-0.72056788,1
0,1441,-0.61615484,1
0,1442,-0.52870277,1
0,1443,-0.3580067,1
0,1444,-0.29460302,1
0,1445,-0.24713024,1
0,1446,-0.18558663,1
0,1447,-0.16121218,1
0,1448,-0.15045335,1
0,1449,-0.057265099,1
0,1450,-0.0071218149,1
0,1451,0.018179982,1
0,1452,0.045173466,1
0,1453,0.086900977,1
0,1454,0.025782646,1
0,1455,0.082907602,1
0,1456,0.067584025,1
0,1457,0.13455151,1
0,1458,0.25097694,1
0,1459,0.22403714,1
0,1460,0.2117415,1
0,1461,0.14528316,1
0,1462,0.2403697,1
0,1463,0.27144822,1
0,1464,0.19709405,1
0,1465,0.35852835,1
0,1466,0.45131703,1
0,1467,0.40618248,1
0,1468,0.54828199,1
0,1469,0.51869113,1
0,1470,0.55756468,1
0,1471,0.61620058,1
0,1472,0.55313175,1
0,1473,0.59117333,1
0,1474,0.61090031,1
0,1475,0.53363841,1
0,1476,0.51353788,1
0,1477,0.6156324,1
0,1478,0.47098399,1
0,1479,0.45231736,1
0,1480,0.4216438,1
0,1481,0.48208225,1
0,1482,0.37153944,1
0,1483,0.38604997,1
0,1484,0.39589425,1
0,1485,0.38188301,1
0,1486,0.32636596,1
0,1487,0.34629094,1
0,1488,0.22860941,1
0,1489,0.2733952,1
0,1490,0.32381313,1
0,1491,0.23135448,1
0,1492,0.24341118,1
0,1493,0.30025892,1
0,1494,0.23570462,1
0,1495,0.21689355,1
0,1496,0.26646861,1
0,1497,0.28661239,1
0,1498,0.55197245,1
0,1499,0.7436647,1
0,1500,1.1209808,1
0,1501,1.2565289,1
0,1502,1.3506048,1
0,1503,1.5030465,1
0,1504,1.9050613,1
0,1505,1.977696,1
0,1506,1.7310649,1
0,1507,1.6800087,1
0,1508,1.4572779,1
0,1509,1.304503,1
0,1510,1.1445094,1
0,1511,0.75396576,1
0,1512,0.3395384,1
0,1513,-0.116375,1
0,1514,-0.29537289,1
0,1515,-0.24483602,1
0,1516,-0.32682085,1
0,1517,-0.215118,1
0,1518,-0.34200912,1
0,1519,-0.41663854,1
0,1520,-0.27606039,1
0,1521,-0.26073745,1
0,1522,-0.23416539,1
0,1523,-0.2129201,1
0,1524,-0.19000441,1
0,1525,-0.19854207,1
0,1526,-0.14229553,1
0,1527,-0.082819151,1
0,1528,-0.073201588,1
0,1529,0.0059626656,1
0,1530,0.46716454,1
0,1531,1.1522791,1
0,1532,1.271808,1
0,1533,1.190796,1
0,1534,1.1807378,1
0,1535,1.058195,1
0,1536,0.98257725,1
0,1537,0.87377195,1
0,1538,1.6267069,1
0,1539,-0.020783419,1
0,1540,-0.0078191379,1
0,1541,-2.3367567,1
0,1542,-3.527643,1
0,1543,-4.3262444,1
0,1544,-3.8904138,1
0,1545,-2.9460007,1
0,1546,-1.9224567,1
0,1547,-1.6705388,1
0,1548,-1.3031111,1
0,1549,-0.29907967,1
0,1550,-0.27366841,1
0,1551,-0.27928163,1
0,1552,-0.2855121,1
0,1553,-0.28919989,1
0,1554,-0.29263189,1
0,1555,-0.39760935,1
0,1556,-0.40128027,1
0,1557,-0.44610812,1
0,1558,-0.46326401,1
0,1559,-0.39617077,1
0,1560,-0.31596354,1
0,1561,-0.37036618,1
0,1562,-0.52714926,1
0,1563,-0.58197651,1
0,1564,-0.62449313,1
0,1565,-0.5527842,1
0,1566,-0.62293266,1
0,1567,-0.68911027,1
0,1568,-0.65794047,1
0,1569,-0.76140667,1
0,1570,-0.73041856,1
0,1571,-0.76516833,1
0,1572,-0.85597892,1
0,1573,-1.0090543,1
0,1574,-1.0606607,1
0,1575,-1.0671751,1
0,1576,-1.090252,1
0,1577,-1.0909388,1
0,1578,-1.0669016,1
0,1579,-1.0828626,1
0,1580,-1.0821855,1
0,1581,-0.98674608,1
0,1582,-0.9368936,1
0,1583,-0.81903706,1
0,1584,-0.6858503,1
0,1585,-0.6245824,1
0,1586,-0.49029342,1
0,1587,-0.42600697,1
0,1588,-0.36034912,1
0,1589,-0.20807361,1
0,1590,-0.12508695,1
0,1591,-0.18817969,1
0,1592,-0.11813875,1
0,1593,-0.11355795,1
0,1594,-0.14616953,1
0,1595,-0.091184183,1
0,1596,-0.046443318,1
0,1597,-0.0041551965,1
0,1598,0.006803061,1
0,1599,0.0099330391,1
0,1600,-0.019665082,1
0,1601,-0.040473591,1
0,1602,0.052610775,1
0,1603,0.026297585,1
0,1604,0.023167188,1
0,1605,0.11511491,1
0,1606,0.15657944,1
0,1607,0.19955413,1
0,1608,0.17143918,1
0,1609,0.2258537,1
0,1610,0.31608261,1
0,1611,0.37923683,1
0,1612,0.37006024,1
0,1613,0.41175447,1
0,1614,0.46197749,1
0,1615,0.54320326,1
0,1616,0.54880024,1
0,1617,0.48250766,1
0,1618,0.57314352,1
0,1619,0.52836526,1
0,1620,0.51934147,1
0,1621,0.47618857,1
0,1622,0.46593179,1
0,1623,0.43017034,1
0,1624,0.45440471,1
0,1625,0.43137952,1
0,1626,0.41159179,1
0,1627,0.45023345,1
0,1628,0.42072954,1
0,1629,0.35379033,1
0,1630,0.42603056,1
0,1631,0.3832093,1
0,1632,0.36046275,1
0,1633,0.39338516,1
0,1634,0.38357026,1
0,1635,0.35661533,1
0,1636,0.51977247,1
0,1637,0.55465908,1
0,1638,0.61016699,1
0,1639,0.73042397,1
0,1640,0.95537319,1
0,1641,1.1374762,1
0,1642,1.2442845,1
0,1643,1.4987644,1
0,1644,1.6533845,1
0,1645,1.7163956,1
0,1646,1.6937524,1
0,1647,1.6150577,1
0,1648,1.6204593,1
0,1649,1.4205859,1
0,1650,1.1758989,1
0,1651,0.91863064,1
0,1652,0.57623684,1
0,1653,0.26696355,1
0,1654,0.077792235,1
0,1655,0.050024788,1
0,1656,0.12544997,1
0,1657,0.21135015,1
0,1658,0.15532258,1
0,1659,0.15655616,1
0,1660,0.10462987,1
0,1661,0.16696775,1
0,1662,0.19685621,1
0,1663,0.24186926,1
0,1664,0.21510645,1
0,1665,0.20137985,1
0,1666,0.25710179,1
0,1667,0.22749674,1
0,1668,0.39845371,1
0,1669,0.81057843,1
0,1670,1.5422583,1
0,1671,1.5267386,1
0,1672,1.426058,1
0,1673,1.5891262,1
0,1674,1.5648449,1
0,1675,1.3347122,1
0,1676,1.1652085,1
0,1677,0.95443408,1
0,1678,1.470211,1
0,1679,0.39306323,1
0,1680,-1.0743015,1
0,1681,-3.2593996,1
0,1682,-4.1259793,1
0,1683,-4.3424462,1
0,1684,-3.9225581,1
0,1685,-3.1901557,1
0,1686,-1.9460608,1
0,1687,-1.554774,1
0,1688,-1.2963524,1
0,1689,-0.56500449,1
0,1690,-0.10577056,1
0,1691,-0.11813282,1
0,1692,-0.16329874,1
0,1693,-0.16615776,1
0,1694,-0.14780036,1
0,1695,-0.13748339,1
0,1696,-0.1031855,1
0,1697,-0.13264396,1
0,1698,-0.097150159,1
0,1699,-0.088237275,1
0,1700,-0.2129409,1
0,1701,-0.23469869,1
0,1702,-0.28181156,1
0,1703,-0.28953936,1
0,1704,-0.32886033,1
0,1705,-0.37907232,1
0,1706,-0.45602242,1
0,1707,-0.39615841,1
0,1708,-0.44200544,1
0,1709,-0.45891429,1
0,1710,-0.52002548,1
0,1711,-0.58236633,1
0,1712,-0.63331585,1
0,1713,-0.70967404,1
0,1714,-0.64087024,1
0,1715,-0.64152322,1
0,1716,-0.63568098,1
0,1717,-0.52959221,1
0,1718,-0.52781548,1
0,1719,-0.4515052,1
0,1720,-0.3963212,1
0,1721,-0.40267291,1
0,1722,-0.29558793,1
0,1723,-0.22151419,1
0,1724,-0.13692163,1
0,1725,-0.038955079,1
0,1726,-0.016756396,1
0,1727,0.12403993,1
0,1728,0.21481016,1
0,1729,0.21177552,1
0,1730,0.28344253,1
0,1731,0.18402967,1
0,1732,0.14159571,1
0,1733,0.15523323,1
0,1734,0.22338072,1
0,1735,0.14542889,1
0,1736,0.14192719,1
0,1737,0.15251023,1
0,1738,0.17836236,1
0,1739,0.13376138,1
0,1740,0.21736044,1
0,1741,0.21937523,1
0,1742,0.17338218,1
0,1743,0.22879701,1
0,1744,0.23978375,1
0,1745,0.29735952,1
0,1746,0.30262429,1
0,1747,0.38894263,1
0,1748,0.42777253,1
0,1749,0.44051275,1
0,1750,0.47315826,1
0,1751,0.53077965,1
0,1752,0.52585974,1
0,1753,0.55169954,1
0,1754,0.61346969,1
0,1755,0.65024299,1
0,1756,0.54995,1
0,1757,0.5818943,1
0,1758,0.5553134,1
0,1759,0.47195946,1
0,1760,0.48755566,1
0,1761,0.4962355,1
0,1762,0.46439761,1
0,1763,0.40633694,1
0,1764,0.37818354,1
0,1765,0.37418393,1
0,1766,0.39217362,1
0,1767,0.3505685,1
0,1768,0.40287261,1
0,1769,0.38801493,1
0,1770,0.25528492,1
0,1771,0.28871606,1
0,1772,0.35533813,1
0,1773,0.40729064,1
0,1774,0.58248244,1
0,1775,0.55011461,1
0,1776,0.7379141,1
0,1777,0.93778764,1
0,1778,1.153718,1
0,1779,1.4648005,1
0,1780,1.8358526,1
0,1781,2.1568953,1
0,1782,2.16781,1
0,1783,2.0665876,1
0,1784,1.8171367,1
0,1785,1.6657929,1
0,1786,1.4019038,1
0,1787,1.1256864,1
0,1788,0.64539177,1
0,1789,0.27767517,1
0,1790,-0.15344,1
0,1791,-0.38774715,1
0,1792,-0.44750766,1
0,1793,-0.47512055,1
0,1794,-0.46610713,1
0,1795,-0.46673156,1
0,1796,-0.50941984,1
0,1797,-0.55514884,1
0,1798,-0.47078248,1
0,1799,-0.47006473,1
0,1800,-0.47874456,1
0,1801,-0.44130873,1
0,1802,-0.42388426,1
0,1803,-0.46550235,1
0,1804,-0.42916721,1
0,1805,-0.31364066,1
0,1806,-0.35887253,1
0,1807,-0.22405015,1
0,1808,0.16157304,1
0,1809,0.77736237,1
0,1810,0.85651474,1
0,1811,0.93106427,1
0,1812,1.1292417,1
0,1813,1.0235497,1
0,1814,0.76771337,1
0,1815,0.61342569,1
0,1816,0.69624715,1
0,1817,1.176666,1
0,1818,1.1316334,1
0,1819,-1.0949732,1
0,1820,4.0581274,1
0,1821,2.0878442,1
0,1822,0.4231153,1
0,1823,-2.0588691,1
0,1824,-3.2376915,1
0,1825,-4.5267529,1
0,1826,-3.8361573,1
0,1827,-1.9750063,1
0,1828,-0.78335306,1
0,1829,-0.38103834,1
0,1830,0.89943175,1
0,1831,1.5067459,1
0,1832,1.1748641,1
0,1833,1.2346958,1
0,1834,1.1736633,1
0,1835,1.2208137,1
0,1836,1.2611729,1
0,1837,1.2908708,1
0,1838,1.2858577,1
0,1839,1.1378515,1
0,1840,0.90326781,1
0,1841,0.96899861,1
0,1842,0.89832916,1
0,1843,0.72589558,1
0,1844,0.75098858,1
0,1845,0.65091167,1
0,1846,0.50533326,1
0,1847,0.39965642,1
0,1848,0.22806365,1
0,1849,0.37147076,1
0,1850,0.05259877,1
0,1851,0.016930755,1
0,1852,-0.29166129,1
0,1853,-0.17993871,1
0,1854,-0.28575471,1
0,1855,-0.52406259,1
0,1856,-0.54779474,1
0,1857,-0.56231929,1
0,1858,-0.59153508,1
0,1859,-0.79944254,1
0,1860,-0.71204342,1
0,1861,-0.64138635,1
0,1862,-0.65578025,1
0,1863,-0.51877396,1
0,1864,-0.40917534,1
0,1865,-0.41203873,1
0,1866,-0.21307428,1
0,1867,0.029181096,1
0,1868,0.11180697,1
0,1869,0.056617946,1
0,1870,0.26037196,1
0,1871,0.16303214,1
0,1872,0.092609966,1
0,1873,0.0079472141,1
0,1874,0.068280563,1
0,1875,0.21874927,1
0,1876,0.32833516,1
0,1877,0.36364284,1
0,1878,0.21674527,1
0,1879,0.18037912,1
0,1880,0.20337981,1
0,1881,0.040300362,1
0,1882,0.27022074,1
0,1883,0.15252781,1
0,1884,0.2082961,1
0,1885,0.32871803,1
0,1886,0.10004339,1
0,1887,0.34049918,1
0,1888,0.27333933,1
0,1889,0.39224732,1
0,1890,0.37920467,1
0,1891,0.4715419,1
0,1892,0.42477109,1
0,1893,0.4245013,1
0,1894,0.59528928,1
0,1895,0.47449468,1
0,1896,0.62632946,1
0,1897,0.50017107,1
0,1898,0.49472156,1
0,1899,0.42461325,1
0,1900,0.50887024,1
0,1901,0.4418146,1
0,1902,0.36925967,1
0,1903,0.28237625,1
0,1904,0.27723809,1
0,1905,0.26045847,1
0,1906,-0.00047767913,1
0,1907,-0.027998341,1
0,1908,-0.2154715,1
0,1909,0.049414319,1
0,1910,0.0046144104,1
0,1911,-0.20377006,1
0,1912,-0.24665436,1
0,1913,-0.34642498,1
0,1914,-0.088971099,1
0,1915,-0.42668836,1
0,1916,-0.37817546,1
0,1917,-0.22328332,1
0,1918,-0.3404631,1
0,1919,-0.46756212,1
0,1920,-0.26919317,1
0,1921,-0.26093301,1
0,1922,-0.32823634,1
0,1923,-0.26777948,1
0,1924,-0.41086656,1
0,1925,-0.010632832,1
0,1926,0.469535,1
0,1927,1.0310432,1
0,1928,0.94631964,1
0,1929,0.79969563,1
0,1930,0.47050645,1
0,1931,0.37471716,1
0,1932,0.12258893,1
0,1933,0.23883239,1
0,1934,0.34120839,1
0,1935,-0.11777447,1
0,1936,-0.55829682,1
0,1937,-1.1025884,1
0,1938,-1.2562895,1
0,1939,-1.1822768,1
0,1940,-1.2107513,1
0,1941,-0.97311758,1
0,1942,-1.2009763,1
0,1943,-1.2717045,1
0,1944,-1.1749427,1
0,1945,-1.0787344,1
0,1946,-1.0606461,1
0,1947,-1.279274,1
0,1948,-1.185413,1
0,1949,-0.99547326,1
0,1950,-0.8901655,1
0,1951,-0.10400893,1
0,1952,1.5046435,1
0,1953,1.3920341,1
0,1954,1.3311414,1
0,1955,1.1975315,1
0,1956,1.0928611,1
0,1957,-0.12932652,1
0,1958,-1.0382589,1
0,1959,-1.4898633,1
0,1960,-0.76160326,1
0,1961,-2.9212433,1
0,1962,-3.8943153,1
0,1963,-4.384961,1
0,1964,-4.0682246,1
0,1965,-3.5111043,1
0,1966,-2.5328155,1
0,1967,-1.6873964,1
0,1968,-1.3980988,1
0,1969,-0.89928768,1
0,1970,-0.53766749,1
0,1971,-0.4819763,1
0,1972,-0.5333801,1
0,1973,-0.52246989,1
0,1974,-0.49307977,1
0,1975,-0.53051716,1
0,1976,-0.44779559,1
0,1977,-0.46459623,1
0,1978,-0.38506357,1
0,1979,-0.48942808,1
0,1980,-0.42492148,1
0,1981,-0.44130039,1
0,1982,-0.37539759,1
0,1983,-0.45228681,1
0,1984,-0.40672606,1
0,1985,-0.41976808,1
0,1986,-0.47985054,1
0,1987,-0.45911045,1
0,1988,-0.45683208,1
0,1989,-0.48010485,1
0,1990,-0.58779941,1
0,1991,-0.57426024,1
0,1992,-0.55424721,1
0,1993,-0.62051811,1
0,1994,-0.5948176,1
0,1995,-0.61261337,1
0,1996,-0.64766504,1
0,1997,-0.56023832,1
0,1998,-0.63740623,1
0,1999,-0.63460819,1
0,2000,-0.51851928,1
0,2001,-0.50397191,1
0,2002,-0.36189107,1
0,2003,-0.29904866,1
0,2004,-0.26717888,1
0,2005,-0.19419251,1
0,2006,-0.19240208,1
0,2007,-0.071317489,1
0,2008,-0.053523598,1
0,2009,-0.029566763,1
0,2010,0.047020617,1
0,2011,0.0040209855,1
0,2012,0.055046918,1
0,2013,0.04336091,1
0,2014,0.023562547,1
0,2015,0.019542722,1
0,2016,0.013656264,1
0,2017,0.084049077,1
0,2018,0.090896122,1
0,2019,0.12223264,1
0,2020,0.1628499,1
0,2021,0.082302086,1
0,2022,0.23661865,1
0,2023,0.18365295,1
0,2024,0.18977741,1
0,2025,0.20949712,1
0,2026,0.20935465,1
0,2027,0.20315573,1
0,2028,0.33178146,1
0,2029,0.3224094,1
0,2030,0.38638533,1
0,2031,0.40866058,1
0,2032,0.38929727,1
0,2033,0.53045532,1
0,2034,0.54518428,1
0,2035,0.58389835,1
0,2036,0.63601033,1
0,2037,0.69719605,1
0,2038,0.58756363,1
0,2039,0.64901772,1
0,2040,0.63839173,1
0,2041,0.59604228,1
0,2042,0.55777869,1
0,2043,0.54128097,1
0,2044,0.55901731,1
0,2045,0.53776883,1
0,2046,0.52052714,1
0,2047,0.44365812,1
0,2048,0.54493639,1
0,2049,0.52231248,1
0,2050,0.5076893,1
0,2051,0.49369375,1
0,2052,0.48639967,1
0,2053,0.47171256,1
0,2054,0.50220469,1
0,2055,0.68602434,1
0,2056,0.81336346,1
0,2057,0.92577458,1
0,2058,1.0300284,1
0,2059,1.1044336,1
0,2060,1.3856685,1
0,2061,1.5812144,1
0,2062,1.7173166,1
0,2063,1.7044098,1
0,2064,1.6705234,1
0,2065,1.5924119,1
0,2066,1.4331079,1
0,2067,1.2461458,1
0,2068,1.0478742,1
0,2069,0.80275863,1
0,2070,0.50358214,1
0,2071,0.31896599,1
0,2072,-0.012007384,1
0,2073,-0.042840598,1
0,2074,-0.10770912,1
0,2075,-0.16100313,1
0,2076,-0.20358106,1
0,2077,-0.14437556,1
0,2078,-0.14597041,1
0,2079,-0.20486453,1
0,2080,-0.1647142,1
0,2081,-0.17971524,1
0,2082,-0.17907795,1
0,2083,-0.15822417,1
0,2084,-0.12270101,1
0,2085,-0.10996763,1
0,2086,-0.084732804,1
0,2087,-0.04736188,1
0,2088,0.21757117,1
0,2089,0.58297649,1
0,2090,1.0009154,1
0,2091,1.0731004,1
0,2092,1.2425013,1
0,2093,1.4495869,1
0,2094,1.3797497,1
0,2095,1.0681166,1
0,2096,0.74606108,1
0,2097,0.84904613,1
0,2098,1.1621124,1
0,2099,-0.38125681,1
0,2100,-0.18649962,1
0,2101,-2.6824878,1
0,2102,-4.0168823,1
0,2103,-4.2181222,1
0,2104,-3.8416655,1
0,2105,-2.9940593,1
0,2106,-1.9739404,1
0,2107,-1.6397073,1
0,2108,-1.2912067,1
0,2109,-0.56676936,1
0,2110,-0.32797059,1
0,2111,-0.35881305,1
0,2112,-0.36747683,1
0,2113,-0.26171947,1
0,2114,-0.43112527,1
0,2115,-0.44179395,1
0,2116,-0.3533499,1
0,2117,-0.37600121,1
0,2118,-0.36462327,1
0,2119,-0.38663497,1
0,2120,-0.41732614,1
0,2121,-0.46416289,1
0,2122,-0.46274808,1
0,2123,-0.54337028,1
0,2124,-0.54589006,1
0,2125,-0.54595426,1
0,2126,-0.59512355,1
0,2127,-0.69263085,1
0,2128,-0.6992367,1
0,2129,-0.71662131,1
0,2130,-0.6611285,1
0,2131,-0.76789989,1
0,2132,-0.81352439,1
0,2133,-0.8734148,1
0,2134,-0.9560522,1
0,2135,-0.87202803,1
0,2136,-0.87619337,1
0,2137,-0.81070489,1
0,2138,-0.79011728,1
0,2139,-0.71594341,1
0,2140,-0.59079026,1
0,2141,-0.53481418,1
0,2142,-0.4767132,1
0,2143,-0.37184064,1
0,2144,-0.24637294,1
0,2145,-0.13094889,1
0,2146,-0.12053496,1
0,2147,0.014479258,1
0,2148,0.011071589,1
0,2149,0.0022752286,1
0,2150,0.11652929,1
0,2151,0.084693509,1
0,2152,0.1283251,1
0,2153,0.1601575,1
0,2154,0.10118565,1
0,2155,0.14420806,1
0,2156,0.13636224,1
0,2157,0.16388596,1
0,2158,0.20674542,1
0,2159,0.29980544,1
0,2160,0.30896572,1
0,2161,0.30677655,1
0,2162,0.34639645,1
0,2163,0.31397849,1
0,2164,0.3859669,1
0,2165,0.5131817,1
0,2166,0.45898087,1
0,2167,0.56655463,1
0,2168,0.58107131,1
0,2169,0.58295677,1
0,2170,0.69183783,1
0,2171,0.67918912,1
0,2172,0.67279958,1
0,2173,0.67036759,1
0,2174,0.6827621,1
0,2175,0.64401916,1
0,2176,0.60561895,1
0,2177,0.70029255,1
0,2178,0.64454818,1
0,2179,0.51677329,1
0,2180,0.59514554,1
0,2181,0.68509769,1
0,2182,0.5734656,1
0,2183,0.52972662,1
0,2184,0.52142569,1
0,2185,0.53106979,1
0,2186,0.38848935,1
0,2187,0.48497031,1
0,2188,0.38670994,1
0,2189,0.37442045,1
0,2190,0.43744564,1
0,2191,0.34410178,1
0,2192,0.37218879,1
0,2193,0.3764674,1
0,2194,0.31480166,1
0,2195,0.3627134,1
0,2196,0.59456603,1
0,2197,0.75787651,1
0,2198,0.91904515,1
0,2199,1.1127328,1
0,2200,1.278646,1
0,2201,1.3747004,1
0,2202,1.7065354,1
0,2203,1.8956841,1
0,2204,1.8727833,1
0,2205,1.7721659,1
0,2206,1.6967053,1
0,2207,1.3856256,1
0,2208,1.2328678,1
0,2209,0.9505372,1
0,2210,0.57927666,1
0,2211,0.2959571,1
0,2212,-0.20178549,1
0,2213,-0.30348223,1
0,2214,-0.38762337,1
0,2215,-0.36700021,1
0,2216,-0.37480505,1
0,2217,-0.47913017,1
0,2218,-0.38322503,1
0,2219,-0.39308814,1
0,2220,-0.46479868,1
0,2221,-0.41347572,1
0,2222,-0.40945921,1
0,2223,-0.46814299,1
0,2224,-0.41410923,1
0,2225,-0.37715362,1
0,2226,-0.33561887,1
0,2227,-0.36524952,1
0,2228,-0.13930581,1
0,2229,0.1456822,1
0,2230,0.80874553,1
0,2231,0.78128882,1
0,2232,0.72518731,1
0,2233,1.0682644,1
0,2234,1.1297018,1
0,2235,0.940981,1
0,2236,1.0080436,1
0,2237,1.5642571,1
0,2238,2.1514756,1
0,2239,0.18005396,1
0,2240,0.80393944,1
0,2241,-1.1069099,1
0,2242,-2.8541073,1
0,2243,-3.8986873,1
0,2244,-4.1531318,1
0,2245,-3.9971558,1
0,2246,-3.2908875,1
0,2247,-2.1893642,1
0,2248,-1.5822713,1
0,2249,-1.4197418,1
0,2250,-0.77623822,1
0,2251,-0.36466834,1
0,2252,-0.35131917,1
0,2253,-0.28209846,1
0,2254,-0.32809502,1
0,2255,-0.24445476,1
0,2256,-0.27204293,1
0,2257,-0.25295563,1
0,2258,-0.21698265,1
0,2259,-0.29821598,1
0,2260,-0.30900757,1
0,2261,-0.31775712,1
0,2262,-0.37635874,1
0,2263,-0.40969467,1
0,2264,-0.37896253,1
0,2265,-0.43216817,1
0,2266,-0.47256245,1
0,2267,-0.45051965,1
0,2268,-0.47193918,1
0,2269,-0.50832158,1
0,2270,-0.63612133,1
0,2271,-0.57613836,1
0,2272,-0.64785973,1
0,2273,-0.65471828,1
0,2274,-0.66189443,1
0,2275,-0.64606584,1
0,2276,-0.57512668,1
0,2277,-0.58149884,1
0,2278,-0.56127511,1
0,2279,-0.56830862,1
0,2280,-0.45494409,1
0,2281,-0.43891843,1
0,2282,-0.32415361,1
0,2283,-0.21697821,1
0,2284,-0.22141165,1
0,2285,-0.14777626,1
0,2286,-0.063389856,1
0,2287,0.022359195,1
0,2288,-0.053922652,1
0,2289,0.036558661,1
0,2290,0.062544658,1
0,2291,0.01289971,1
0,2292,0.17091905,1
0,2293,0.023649326,1
0,2294,-0.00090073401,1
0,2295,0.046446378,1
0,2296,0.068936828,1
0,2297,0.022108195,1
0,2298,0.094244559,1
0,2299,0.085704019,1
0,2300,0.1630688,1
0,2301,0.16418196,1
0,2302,0.13652682,1
0,2303,0.1895401,1
0,2304,0.24475174,1
0,2305,0.34320768,1
0,2306,0.2558181,1
0,2307,0.31011176,1
0,2308,0.3933497,1
0,2309,0.34045738,1
0,2310,0.47296407,1
0,2311,0.55601857,1
0,2312,0.63041308,1
0,2313,0.6022866,1
0,2314,0.53315645,1
0,2315,0.59669968,1
0,2316,0.76151275,1
0,2317,0.60544583,1
0,2318,0.73387369,1
0,2319,0.69851521,1
0,2320,0.67935095,1
0,2321,0.61438734,1
0,2322,0.59744178,1
0,2323,0.5448784,1
0,2324,0.52520109,1
0,2325,0.52317415,1
0,2326,0.48486465,1
0,2327,0.49053208,1
0,2328,0.45309773,1
0,2329,0.37501758,1
0,2330,0.37100799,1
0,2331,0.48005072,1
0,2332,0.42530487,1
0,2333,0.50881377,1
0,2334,0.68847679,1
0,2335,0.83558126,1
0,2336,0.9802153,1
0,2337,1.1705984,1
0,2338,1.3240908,1
0,2339,1.5856125,1
0,2340,1.7161152,1
0,2341,1.9341456,1
0,2342,1.9404373,1
0,2343,1.8565974,1
0,2344,1.7979553,1
0,2345,1.6118864,1
0,2346,1.4324763,1
0,2347,1.1167874,1
0,2348,0.86855153,1
0,2349,0.48389514,1
0,2350,0.10958938,1
0,2351,-0.1271405,1
0,2352,-0.31815938,1
0,2353,-0.3904573,1
0,2354,-0.23712713,1
0,2355,-0.33023956,1
0,2356,-0.36411214,1
0,2357,-0.3923664,1
0,2358,-0.40263892,1
0,2359,-0.35864349,1
0,2360,-0.42113622,1
0,2361,-0.32743019,1
0,2362,-0.38767076,1
0,2363,-0.47892311,1
0,2364,-0.42738391,1
0,2365,-0.33768145,1
0,2366,-0.27741627,1
0,2367,-0.24917941,1
0,2368,0.12690831,1
0,2369,0.7574027,1
0,2370,0.85381342,1
0,2371,0.87943277,1
0,2372,1.0265218,1
0,2373,1.0746765,1
0,2374,0.8469406,1
0,2375,0.57368995,1
0,2376,0.85798633,1
0,2377,1.2024158,1
0,2378,0.61324167,1
0,2379,-1.6556465,1
0,2380,-0.92021269,1
0,2381,-2.4495095,1
0,2382,-3.1920276,1
0,2383,-3.8751634,1
0,2384,-4.1807232,1
0,2385,-3.8921772,1
0,2386,-3.1562282,1
0,2387,-2.0225688,1
0,2388,-1.5201389,1
0,2389,-1.1702225,1
0,2390,-0.59172108,1
0,2391,-0.39647627,1
0,2392,-0.41005285,1
0,2393,-0.44187569,1
0,2394,-0.41732916,1
0,2395,-0.4230577,1
0,2396,-0.31273006,1
0,2397,-0.30414413,1
0,2398,-0.30352531,1
0,2399,-0.34484548,1
0,2400,-0.3214973,1
0,2401,-0.22451271,1
0,2402,-0.3555104,1
0,2403,-0.24303292,1
0,2404,-0.3110669,1
0,2405,-0.39434553,1
0,2406,-0.34914971,1
0,2407,-0.33717006,1
0,2408,-0.425003,1
0,2409,-0.33987118,1
0,2410,-0.31567764,1
0,2411,-0.37498894,1
0,2412,-0.37463538,1
0,2413,-0.46719398,1
0,2414,-0.38971277,1
0,2415,-0.33762768,1
0,2416,-0.4256848,1
0,2417,-0.25257294,1
0,2418,-0.34635428,1
0,2419,-0.22780434,1
0,2420,-0.18190239,1
0,2421,-0.17013342,1
0,2422,-0.075184146,1
0,2423,-0.055117972,1
0,2424,0.057978477,1
0,2425,-0.030611937,1
0,2426,0.093540119,1
0,2427,0.10650889,1
0,2428,0.18256499,1
0,2429,0.17340756,1
0,2430,0.15274786,1
0,2431,0.17927537,1
0,2432,0.12103317,1
0,2433,0.16948828,1
0,2434,0.10872204,1
0,2435,0.16637585,1
0,2436,0.1449043,1
0,2437,0.20499389,1
0,2438,0.19213428,1
0,2439,0.11082794,1
0,2440,0.16703457,1
0,2441,0.14103825,1
0,2442,0.17080344,1
0,2443,0.22293486,1
0,2444,0.26776037,1
0,2445,0.31807691,1
0,2446,0.26640339,1
0,2447,0.32930595,1
0,2448,0.37284243,1
0,2449,0.36188937,1
0,2450,0.42514223,1
0,2451,0.53365866,1
0,2452,0.4146216,1
0,2453,0.53391196,1
0,2454,0.51904957,1
0,2455,0.53886307,1
0,2456,0.59249776,1
0,2457,0.53310578,1
0,2458,0.54039423,1
0,2459,0.64966984,1
0,2460,0.61520821,1
0,2461,0.52459282,1
0,2462,0.46795155,1
0,2463,0.52266134,1
0,2464,0.53384419,1
0,2465,0.50274413,1
0,2466,0.49962214,1
0,2467,0.38647544,1
0,2468,0.38632762,1
0,2469,0.49503317,1
0,2470,0.42799711,1
0,2471,0.40711516,1
0,2472,0.47528623,1
0,2473,0.49998032,1
0,2474,0.69165004,1
0,2475,0.84566192,1
0,2476,1.0553762,1
0,2477,1.1936459,1
0,2478,1.2772052,1
0,2479,1.4663071,1
0,2480,1.6674008,1
0,2481,1.9156015,1
0,2482,1.9280549,1
0,2483,1.8639853,1
0,2484,1.8670685,1
0,2485,1.6940862,1
0,2486,1.4754697,1
0,2487,1.3196559,1
0,2488,1.0656747,1
0,2489,0.89766616,1
0,2490,0.67712457,1
0,2491,0.24714371,1
0,2492,0.049676504,1
0,2493,-0.086538702,1
0,2494,-0.13490496,1
0,2495,-0.17308643,1
0,2496,-0.17088711,1
0,2497,-0.10809801,1
0,2498,-0.16925271,1
0,2499,-0.15074175,1
0,2500,-0.09864077,1
0,2501,-0.095393694,1
0,2502,-0.17334648,1
0,2503,-0.17934131,1
0,2504,-0.20345963,1
0,2505,-0.16022208,1
0,2506,-0.11141973,1
0,2507,-0.03391909,1
0,2508,0.27296036,1
0,2509,0.80906609,1
0,2510,1.4302895,1
0,2511,1.3466755,1
0,2512,0.99819255,1
0,2513,0.23454213,1
0,2514,-0.62493364,1
0,2515,-1.1341003,1
0,2516,-1.2635559,1
0,2517,-0.96427199,1
0,2518,-0.37083214,1
0,2519,-1.0404894,1
0,2520,2.7446026,1
0,2521,-0.10192395,1
0,2522,-2.8516809,1
0,2523,-3.9749087,1
0,2524,-3.9954373,1
0,2525,-3.7196635,1
0,2526,-2.6809699,1
0,2527,-1.441639,1
0,2528,-1.1668635,1
0,2529,-0.65717801,1
0,2530,0.19802989,1
0,2531,0.32560922,1
0,2532,0.24802392,1
0,2533,0.21410455,1
0,2534,0.2312347,1
0,2535,0.15602696,1
0,2536,0.18260884,1
0,2537,-0.017426684,1
0,2538,0.080068624,1
0,2539,0.17351764,1
0,2540,-0.0054520943,1
0,2541,0.08809177,1
0,2542,-0.06066651,1
0,2543,-0.061423634,1
0,2544,-0.23860138,1
0,2545,-0.11370367,1
0,2546,-0.20938474,1
0,2547,-0.28177691,1
0,2548,-0.2254406,1
0,2549,-0.40003596,1
0,2550,-0.34852623,1
0,2551,-0.54806559,1
0,2552,-0.63013946,1
0,2553,-0.59565712,1
0,2554,-0.67086368,1
0,2555,-0.66044288,1
0,2556,-0.67935651,1
0,2557,-0.55530684,1
0,2558,-0.616194,1
0,2559,-0.62244661,1
0,2560,-0.46646307,1
0,2561,-0.44755099,1
0,2562,-0.42212896,1
0,2563,-0.42526753,1
0,2564,-0.2661539,1
0,2565,-0.10979095,1
0,2566,-0.090907536,1
0,2567,0.040707874,1
0,2568,-0.015153917,1
0,2569,0.098671804,1
0,2570,0.15602186,1
0,2571,0.09898997,1
0,2572,0.10749287,1
0,2573,0.11013242,1
0,2574,0.13155461,1
0,2575,0.17084545,1
0,2576,0.19566172,1
0,2577,0.19983166,1
0,2578,0.21016696,1
0,2579,0.23489276,1
0,2580,0.20217599,1
0,2581,0.26879019,1
0,2582,0.26429342,1
0,2583,0.27906444,1
0,2584,0.38569496,1
0,2585,0.34877103,1
0,2586,0.38672994,1
0,2587,0.40572022,1
0,2588,0.40813245,1
0,2589,0.50926479,1
0,2590,0.44136309,1
0,2591,0.58979889,1
0,2592,0.59175812,1
0,2593,0.56674437,1
0,2594,0.56212416,1
0,2595,0.44679032,1
0,2596,0.53317478,1
0,2597,0.48217058,1
0,2598,0.45638518,1
0,2599,0.41738415,1
0,2600,0.41448074,1
0,2601,0.401348,1
0,2602,0.30965594,1
0,2603,0.2873534,1
0,2604,0.25443549,1
0,2605,0.24627087,1
0,2606,0.19433849,1
0,2607,0.12471424,1
0,2608,0.20298548,1
0,2609,0.11132273,1
0,2610,0.19316855,1
0,2611,0.10161629,1
0,2612,0.12920063,1
0,2613,0.2176154,1
0,2614,0.28361275,1
0,2615,0.41857961,1
0,2616,0.58901054,1
0,2617,0.83914654,1
0,2618,1.0475469,1
0,2619,1.2788147,1
0,2620,1.5889406,1
0,2621,1.9124875,1
0,2622,2.1550011,1
0,2623,1.9325243,1
0,2624,1.7873729,1
0,2625,1.7160542,1
0,2626,1.3623743,1
0,2627,1.0701441,1
0,2628,0.68076116,1
0,2629,0.4013946,1
0,2630,0.092853713,1
0,2631,-0.4851557,1
0,2632,-0.76519087,1
0,2633,-0.81784633,1
0,2634,-0.81884361,1
0,2635,-0.75210186,1
0,2636,-0.8481649,1
0,2637,-0.89043512,1
0,2638,-0.82548985,1
0,2639,-0.78801503,1
0,2640,-0.96854557,1
0,2641,-0.88286201,1
0,2642,-0.77959626,1
0,2643,-0.91587261,1
0,2644,-0.96062332,1
0,2645,-0.8737008,1
0,2646,-0.90314839,1
0,2647,-0.8208519,1
0,2648,-0.49385555,1
0,2649,0.21113998,1
0,2650,0.5036087,1
0,2651,0.45144067,1
0,2652,0.80277864,1
0,2653,0.88392204,1
0,2654,0.8953199,1
0,2655,0.84012611,1
0,2656,1.3051815,1
0,2657,2.1146869,1
0,2658,1.5902704,1
0,2659,-1.9219276,1
0,2660,2.4028692,1
0,2661,2.036719,1
0,2662,0.34090237,1
0,2663,-1.2864359,1
0,2664,-3.3014551,1
0,2665,-4.2245689,1
0,2666,-3.3983068,1
0,2667,-2.0793023,1
0,2668,-1.5979055,1
0,2669,-1.5279736,1
0,2670,-0.075556017,1
0,2671,0.15018446,1
0,2672,-0.018965012,1
0,2673,0.15663253,1
0,2674,0.083514438,1
0,2675,0.054505576,1
0,2676,0.06397801,1
0,2677,-0.01048702,1
0,2678,-0.074013727,1
0,2679,-0.10897484,1
0,2680,-0.026492113,1
0,2681,-0.23756575,1
0,2682,-0.21214982,1
0,2683,-0.27712782,1
0,2684,-0.37903349,1
0,2685,-0.32254435,1
0,2686,-0.48713548,1
0,2687,-0.65077272,1
0,2688,-0.70534842,1
0,2689,-0.70664499,1
0,2690,-0.92590132,1
0,2691,-0.8662099,1
0,2692,-0.99841442,1
0,2693,-1.126847,1
0,2694,-1.3522409,1
0,2695,-1.4065604,1
0,2696,-1.3555018,1
0,2697,-1.457718,1
0,2698,-1.4997178,1
0,2699,-1.5850003,1
0,2700,-1.4679456,1
0,2701,-1.372172,1
0,2702,-1.3730991,1
0,2703,-1.2589068,1
0,2704,-1.0889847,1
0,2705,-0.92281284,1
0,2706,-0.9173121,1
0,2707,-0.6498836,1
0,2708,-0.57360531,1
0,2709,-0.35838517,1
0,2710,-0.36869867,1
0,2711,-0.32218233,1
0,2712,-0.2347721,1
0,2713,-0.38168321,1
0,2714,-0.22551155,1
0,2715,-0.15688768,1
0,2716,-0.10989784,1
0,2717,-0.045662064,1
0,2718,0.057007987,1
0,2719,-0.0044050464,1
0,2720,0.2453564,1
0,2721,0.086985038,1
0,2722,0.1154461,1
0,2723,0.22758341,1
0,2724,0.20257055,1
0,2725,0.26671901,1
0,2726,0.14088738,1
0,2727,0.37303201,1
0,2728,0.45446408,1
0,2729,0.42525272,1
0,2730,0.60888085,1
0,2731,0.40595386,1
0,2732,0.56530587,1
0,2733,0.51118929,1
0,2734,0.60684592,1
0,2735,0.54951025,1
0,2736,0.50974454,1
0,2737,0.78727949,1
0,2738,0.61515125,1
0,2739,0.53754415,1
0,2740,0.58858151,1
0,2741,0.58357135,1
0,2742,0.57533841,1
0,2743,0.479062,1
0,2744,0.51443781,1
0,2745,0.58001535,1
0,2746,0.46947286,1
0,2747,0.38714849,1
0,2748,0.42924352,1
0,2749,0.46601572,1
0,2750,0.40643673,1
0,2751,0.32298924,1
0,2752,0.2049005,1
0,2753,0.17274564,1
0,2754,0.36359224,1
0,2755,0.19390179,1
0,2756,0.1845098,1
0,2757,0.18137323,1
0,2758,0.2599665,1
0,2759,0.24193444,1
0,2760,0.42826528,1
0,2761,0.23032876,1
0,2762,0.11846871,1
0,2763,0.17731718,1
0,2764,0.44046951,1
0,2765,0.44224902,1
0,2766,0.63561819,1
0,2767,1.1076544,1
0,2768,1.4457986,1
0,2769,1.4092977,1
0,2770,1.1878451,1
0,2771,1.1434059,1
0,2772,0.89119047,1
0,2773,0.71810525,1
0,2774,0.90452113,1
0,2775,0.83995397,1
0,2776,0.49346968,1
0,2777,0.12504912,1
0,2778,-0.30902264,1
0,2779,-0.32715519,1
0,2780,-0.26980512,1
0,2781,-0.21065767,1
0,2782,-0.22993566,1
0,2783,-0.22410193,1
0,2784,-0.21592104,1
0,2785,-0.23121885,1
0,2786,-0.10172133,1
0,2787,-0.12929552,1
0,2788,0.0073680101,1
0,2789,-0.034076312,1
0,2790,0.11813815,1
0,2791,0.41608709,1
0,2792,1.1149831,1
0,2793,0.89916395,1
0,2794,1.1545248,1
0,2795,1.9873284,1
0,2796,2.4287317,1
0,2797,2.6139868,1
0,2798,1.9628195,1
0,2799,1.7691982,1
0,2800,-1.3622631,1
0,2801,-3.3530235,1
0,2802,-3.9756571,1
0,2803,-4.2282265,1
0,2804,-3.7996727,1
0,2805,-3.218119,1
0,2806,-2.049291,1
0,2807,-1.5296725,1
0,2808,-1.2974544,1
0,2809,-0.83059008,1
0,2810,-0.42436503,1
0,2811,-0.47203471,1
0,2812,-0.51516888,1
0,2813,-0.40258721,1
0,2814,-0.43984377,1
0,2815,-0.40805466,1
0,2816,-0.34322968,1
0,2817,-0.38626221,1
0,2818,-0.44859756,1
0,2819,-0.44478779,1
0,2820,-0.46136538,1
0,2821,-0.35765502,1
0,2822,-0.45114956,1
0,2823,-0.45308283,1
0,2824,-0.41227691,1
0,2825,-0.45107308,1
0,2826,-0.3903585,1
0,2827,-0.46497817,1
0,2828,-0.45665371,1
0,2829,-0.61793431,1
0,2830,-0.62550533,1
0,2831,-0.59844355,1
0,2832,-0.67672941,1
0,2833,-0.66020892,1
0,2834,-0.65055473,1
0,2835,-0.62648659,1
0,2836,-0.57630822,1
0,2837,-0.61395077,1
0,2838,-0.54016171,1
0,2839,-0.47888403,1
0,2840,-0.48626422,1
0,2841,-0.4357446,1
0,2842,-0.40404034,1
0,2843,-0.29283292,1
0,2844,-0.17227963,1
0,2845,-0.055059062,1
0,2846,-0.039811028,1
0,2847,-0.021250817,1
0,2848,0.021225858,1
0,2849,0.032141501,1
0,2850,0.0055192555,1
0,2851,0.078736856,1
0,2852,0.057119396,1
0,2853,-0.011383557,1
0,2854,0.062648614,1
0,2855,0.018703334,1
0,2856,0.066690407,1
0,2857,0.036431097,1
0,2858,0.0673542,1
0,2859,0.1152615,1
0,2860,0.042019669,1
0,2861,0.12611329,1
0,2862,0.031845278,1
0,2863,-0.0050344263,1
0,2864,0.25914945,1
0,2865,0.19144553,1
0,2866,0.28882797,1
0,2867,0.208862,1
0,2868,0.27987512,1
0,2869,0.28161752,1
0,2870,0.3040742,1
0,2871,0.36857037,1
0,2872,0.36852886,1
0,2873,0.48424656,1
0,2874,0.45195308,1
0,2875,0.53652412,1
0,2876,0.44951282,1
0,2877,0.508908,1
0,2878,0.59790349,1
0,2879,0.65801959,1
0,2880,0.61776177,1
0,2881,0.62312973,1
0,2882,0.61290676,1
0,2883,0.5606624,1
0,2884,0.56296018,1
0,2885,0.55307739,1
0,2886,0.50082801,1
0,2887,0.53918461,1
0,2888,0.41686391,1
0,2889,0.50496427,1
0,2890,0.48994675,1
0,2891,0.51285718,1
0,2892,0.55113786,1
0,2893,0.6061756,1
0,2894,0.71442683,1
0,2895,0.84235569,1
0,2896,0.99378893,1
0,2897,1.1099169,1
0,2898,1.1483134,1
0,2899,1.3754203,1
0,2900,1.6109722,1
0,2901,1.7430714,1
0,2902,1.7895363,1
0,2903,1.6545782,1
0,2904,1.5758174,1
0,2905,1.4343887,1
0,2906,1.3748985,1
0,2907,1.063426,1
0,2908,0.86959095,1
0,2909,0.58586802,1
0,2910,0.26028238,1
0,2911,0.13745371,1
0,2912,0.034019054,1
0,2913,-0.019212965,1
0,2914,0.026099144,1
0,2915,-0.078532135,1
0,2916,-0.065535432,1
0,2917,-6.0685538e-05,1
0,2918,-0.00070388093,1
0,2919,-0.10944542,1
0,2920,-0.082693936,1
0,2921,-0.07276241,1
0,2922,-0.02545923,1
0,2923,0.018727637,1
0,2924,0.0017723386,1
0,2925,0.054476173,1
0,2926,0.010278866,1
0,2927,0.23725283,1
0,2928,0.76055281,1
0,2929,1.0643457,1
0,2930,1.1205282,1
0,2931,1.3098261,1
0,2932,1.468151,1
0,2933,1.2678399,1
0,2934,0.87240877,1
0,2935,0.63855492,1
0,2936,0.91927041,1
0,2937,0.71614672,1
0,2938,-0.35122193,1
0,2939,-2.2346511,1
0,2940,1.9354139,1
0,2941,-0.54876161,1
0,2942,-2.3433933,1
0,2943,-3.3785997,1
0,2944,-4.2434162,1
0,2945,-4.1082127,1
0,2946,-3.044811,1
0,2947,-1.6656152,1
0,2948,-1.4281689,1
0,2949,-1.0200895,1
0,2950,-0.11958602,1
0,2951,0.19645346,1
0,2952,0.11236011,1
0,2953,0.136799,1
0,2954,0.1831146,1
0,2955,0.11482262,1
0,2956,0.13970984,1
0,2957,0.064160771,1
0,2958,-0.076424762,1
0,2959,0.11964848,1
0,2960,0.047738227,1
0,2961,-0.08808512,1
0,2962,-0.16747814,1
0,2963,-0.087828767,1
0,2964,-0.22899225,1
0,2965,-0.19830621,1
0,2966,-0.21673233,1
0,2967,-0.29271651,1
0,2968,-0.3773239,1
0,2969,-0.4581482,1
0,2970,-0.58024211,1
0,2971,-0.59794755,1
0,2972,-0.55775502,1
0,2973,-0.67927402,1
0,2974,-0.71476452,1
0,2975,-0.6567193,1
0,2976,-0.74916196,1
0,2977,-0.74145114,1
0,2978,-0.77261964,1
0,2979,-0.79419029,1
0,2980,-0.62048718,1
0,2981,-0.52279613,1
0,2982,-0.38184607,1
0,2983,-0.42528796,1
0,2984,-0.46277407,1
0,2985,-0.29762258,1
0,2986,-0.14937218,1
0,2987,-0.089397028,1
0,2988,-0.067538487,1
0,2989,-0.035564051,1
0,2990,0.012312978,1
0,2991,0.0079290433,1
0,2992,0.046252931,1
0,2993,-0.0015729175,1
0,2994,0.17067388,1
0,2995,0.14817795,1
0,2996,0.153269,1
0,2997,0.13371903,1
0,2998,0.079181531,1
0,2999,0.23618725,1
0,3000,0.18735324,1
0,3001,0.19535187,1
0,3002,0.25764088,1
0,3003,0.19105036,1
0,3004,0.21327837,1
0,3005,0.23697164,1
0,3006,0.32188255,1
0,3007,0.30056747,1
0,3008,0.34675211,1
0,3009,0.38094928,1
0,3010,0.42678163,1
0,3011,0.54205084,1
0,3012,0.52227832,1
0,3013,0.32599425,1
0,3014,0.37182427,1
0,3015,0.39498241,1
0,3016,0.42673111,1
0,3017,0.42251283,1
0,3018,0.40811466,1
0,3019,0.48273231,1
0,3020,0.33924359,1
0,3021,0.25099616,1
0,3022,0.31871522,1
0,3023,0.32999429,1
0,3024,0.43766247,1
0,3025,0.28029477,1
0,3026,0.36635703,1
0,3027,0.20082264,1
0,3028,0.25016819,1
0,3029,0.20604908,1
0,3030,0.2372067,1
0,3031,0.25328282,1
0,3032,0.11064083,1
0,3033,0.16059341,1
0,3034,0.1884015,1
0,3035,0.29655201,1
0,3036,0.64633559,1
0,3037,0.79985963,1
0,3038,1.0738657,1
0,3039,1.0875983,1
0,3040,1.2857696,1
0,3041,1.5006405,1
0,3042,1.8099441,1
0,3043,2.2429331,1
0,3044,2.1416854,1
0,3045,1.9899798,1
0,3046,1.7838311,1
0,3047,1.7000464,1
0,3048,1.4599993,1
0,3049,1.1057346,1
0,3050,0.86617063,1
0,3051,0.15670857,1
0,3052,-0.37163408,1
0,3053,-0.51717482,1
0,3054,-0.57012049,1
0,3055,-0.71142397,1
0,3056,-0.64748321,1
0,3057,-0.80954028,1
0,3058,-0.75343851,1
0,3059,-0.76874808,1
0,3060,-0.75939516,1
0,3061,-0.75445924,1
0,3062,-0.68913011,1
0,3063,-0.74411385,1
0,3064,-0.72209755,1
0,3065,-0.77188463,1
0,3066,-0.71977463,1
0,3067,-0.70657003,1
0,3068,-0.56007946,1
0,3069,-0.1669868,1
0,3070,0.37100183,1
0,3071,0.54841757,1
0,3072,0.93738971,1
0,3073,1.2248676,1
0,3074,1.2933998,1
0,3075,1.1836717,1
0,3076,1.0941214,1
0,3077,1.5880921,1
0,3078,1.8711056,1
0,3079,-1.2487458,1
0,3080,-1.862747,1
0,3081,-3.2036327,1
0,3082,-3.6341531,1
0,3083,-4.1693744,1
0,3084,-3.8880809,1
0,3085,-3.2758404,1
0,3086,-2.1004304,1
0,3087,-1.6623015,1
0,3088,-1.4397477,1
0,3089,-0.75266185,1
0,3090,-0.44549375,1
0,3091,-0.45413288,1
0,3092,-0.4761388,1
0,3093,-0.50550685,1
0,3094,-0.49158515,1
0,3095,-0.34366539,1
0,3096,-0.40914391,1
0,3097,-0.4219994,1
0,3098,-0.44125915,1
0,3099,-0.5194886,1
0,3100,-0.33920061,1
0,3101,-0.3773344,1
0,3102,-0.35424806,1
0,3103,-0.35669867,1
0,3104,-0.49676656,1
0,3105,-0.49409601,1
0,3106,-0.36678391,1
0,3107,-0.36253913,1
0,3108,-0.44196693,1
0,3109,-0.32685485,1
0,3110,-0.34194356,1
0,3111,-0.37759439,1
0,3112,-0.40221446,1
0,3113,-0.34010565,1
0,3114,-0.41440617,1
0,3115,-0.3196923,1
0,3116,-0.27434111,1
0,3117,-0.35593264,1
0,3118,-0.27299992,1
0,3119,-0.20626303,1
0,3120,-0.15637955,1
0,3121,-0.1435254,1
0,3122,-0.11830015,1
0,3123,-0.23490256,1
0,3124,-0.10315541,1
0,3125,-0.00878327,1
0,3126,0.049864226,1
0,3127,-0.028025459,1
0,3128,0.034272462,1
0,3129,0.057320583,1
0,3130,-0.016121597,1
0,3131,-0.00208756,1
0,3132,0.00059489001,1
0,3133,-0.0038257248,1
0,3134,0.046449214,1
0,3135,-0.0055238788,1
0,3136,-0.010946276,1
0,3137,0.017766163,1
0,3138,-0.0020078429,1
0,3139,-0.081315893,1
0,3140,-0.014966009,1
0,3141,-0.023964874,1
0,3142,-0.012726303,1
0,3143,-0.029349474,1
0,3144,0.086248247,1
0,3145,0.065663412,1
0,3146,-0.058436044,1
0,3147,0.16384351,1
0,3148,0.27792196,1
0,3149,0.17409647,1
0,3150,0.19389366,1
0,3151,0.27812106,1
0,3152,0.38732614,1
0,3153,0.41718472,1
0,3154,0.38385835,1
0,3155,0.48625233,1
0,3156,0.48641375,1
0,3157,0.49536625,1
0,3158,0.58442818,1
0,3159,0.62554179,1
0,3160,0.66185102,1
0,3161,0.68364795,1
0,3162,0.68090778,1
0,3163,0.59428431,1
0,3164,0.5372284,1
0,3165,0.56968507,1
0,3166,0.57739664,1
0,3167,0.53179604,1
0,3168,0.59463077,1
0,3169,0.6207137,1
0,3170,0.51427007,1
0,3171,0.47037098,1
0,3172,0.49686007,1
0,3173,0.58112647,1
0,3174,0.530719,1
0,3175,0.81476495,1
0,3176,1.0114023,1
0,3177,1.0836272,1
0,3178,1.3344553,1
0,3179,1.4147444,1
0,3180,1.6723684,1
0,3181,1.9719198,1
0,3182,2.1296933,1
0,3183,2.1805321,1
0,3184,2.0759711,1
0,3185,1.8886251,1
0,3186,1.7297516,1
0,3187,1.4535628,1
0,3188,1.3362974,1
0,3189,1.0414771,1
0,3190,0.88400103,1
0,3191,0.58579182,1
0,3192,0.11928472,1
0,3193,0.050663186,1
0,3194,-0.044869993,1
0,3195,-0.090907327,1
0,3196,-0.0439102,1
0,3197,0.051939961,1
0,3198,-0.22551987,1
0,3199,-0.19840684,1
0,3200,-0.042490291,1
0,3201,-0.11682405,1
0,3202,-0.12270507,1
0,3203,-0.21550777,1
0,3204,-0.11633065,1
0,3205,-0.096284751,1
0,3206,-0.013903083,1
0,3207,0.095774707,1
0,3208,0.21762874,1
0,3209,0.75541792,1
0,3210,1.2690534,1
0,3211,1.2328221,1
0,3212,0.90270118,1
0,3213,0.37600261,1
0,3214,-0.31828068,1
0,3215,-0.67593442,1
0,3216,-0.84912217,1
0,3217,-0.78116739,1
0,3218,-0.302293,1
0,3219,-0.61002273,1
0,3220,-0.99857184,1
0,3221,-2.8897248,1
0,3222,-3.3877792,1
0,3223,-3.5106386,1
0,3224,-2.9968963,1
0,3225,-2.2804124,1
0,3226,-1.700196,1
0,3227,-1.5611074,1
0,3228,-1.0948267,1
0,3229,-0.92235086,1
0,3230,-0.93785499,1
0,3231,-0.8784832,1
0,3232,-0.88296422,1
0,3233,-0.88192933,1
0,3234,-0.90866771,1
0,3235,-0.82307862,1
0,3236,-0.85934335,1
0,3237,-0.8821804,1
0,3238,-0.87391177,1
0,3239,-0.88044505,1
0,3240,-0.80895567,1
0,3241,-0.88683291,1
0,3242,-0.92602309,1
0,3243,-0.90180834,1
0,3244,-0.92022015,1
0,3245,-0.92535499,1
0,3246,-0.88331768,1
0,3247,-0.9317092,1
0,3248,-0.99367519,1
0,3249,-0.91165229,1
0,3250,-0.96074319,1
0,3251,-0.99347461,1
0,3252,-1.0409567,1
0,3253,-1.0739878,1
0,3254,-1.008234,1
0,3255,-1.0061943,1
0,3256,-1.0304824,1
0,3257,-0.95906716,1
0,3258,-0.8906352,1
0,3259,-0.8781486,1
0,3260,-0.77507971,1
0,3261,-0.6870353,1
0,3262,-0.66475871,1
0,3263,-0.5953013,1
0,3264,-0.50909821,1
0,3265,-0.42626407,1
0,3266,-0.44355598,1
0,3267,-0.39454227,1
0,3268,-0.4168346,1
0,3269,-0.38282671,1
0,3270,-0.28068833,1
0,3271,-0.28925165,1
0,3272,-0.25998195,1
0,3273,-0.2715064,1
0,3274,-0.24758514,1
0,3275,-0.15726946,1
0,3276,-0.23002316,1
0,3277,-0.13092003,1
0,3278,-0.15092381,1
0,3279,-0.1122746,1
0,3280,-0.066530843,1
0,3281,-0.068022442,1
0,3282,-0.025683045,1
0,3283,-0.064316853,1
0,3284,0.073704771,1
0,3285,0.082570633,1
0,3286,0.067146488,1
0,3287,0.15832731,1
0,3288,0.2098914,1
0,3289,0.22255959,1
0,3290,0.28371631,1
0,3291,0.26865946,1
0,3292,0.24374031,1
0,3293,0.3335854,1
0,3294,0.36023081,1
0,3295,0.42749618,1
0,3296,0.41436887,1
0,3297,0.39189828,1
0,3298,0.4040615,1
0,3299,0.49267965,1
0,3300,0.45348147,1
0,3301,0.4041807,1
0,3302,0.51681136,1
0,3303,0.45885891,1
0,3304,0.46972151,1
0,3305,0.4750004,1
0,3306,0.46926579,1
0,3307,0.45131178,1
0,3308,0.50014,1
0,3309,0.52043581,1
0,3310,0.49295983,1
0,3311,0.53082938,1
0,3312,0.56105319,1
0,3313,0.5511731,1
0,3314,0.65178524,1
0,3315,0.6418098,1
0,3316,0.73581919,1
0,3317,0.87732018,1
0,3318,0.97527227,1
0,3319,1.0435107,1
0,3320,1.1718094,1
0,3321,1.3105026,1
0,3322,1.3792612,1
0,3323,1.4075101,1
0,3324,1.406604,1
0,3325,1.3662523,1
0,3326,1.2347971,1
0,3327,1.229052,1
0,3328,1.1408462,1
0,3329,1.0293558,1
0,3330,0.86943579,1
0,3331,0.70750348,1
0,3332,0.62642132,1
0,3333,0.57351075,1
0,3334,0.57377744,1
0,3335,0.56218941,1
0,3336,0.59570127,1
0,3337,0.5855605,1
0,3338,0.64276998,1
0,3339,0.63787059,1
0,3340,0.58150792,1
0,3341,0.62787035,1
0,3342,0.63706215,1
0,3343,0.66031076,1
0,3344,0.73367111,1
0,3345,0.74197698,1
0,3346,0.73846322,1
0,3347,0.89510572,1
0,3348,1.1456675,1
0,3349,1.3816389,1
0,3350,1.4203026,1
0,3351,1.3371892,1
0,3352,1.3936424,1
0,3353,1.3733062,1
0,3354,1.312156,1
0,3355,1.2463692,1
0,3356,1.4304958,1
0,3357,1.6350927,1
0,3358,1.5209621,1
0,3359,0.65421129,1
0,3360,-0.28834122,1
0,3361,-2.2725454,1
0,3362,-3.6660708,1
0,3363,-4.2827374,1
0,3364,-3.7242411,1
0,3365,-2.8432282,1
0,3366,-1.8749167,1
0,3367,-1.5312512,1
0,3368,-1.1943884,1
0,3369,-0.54127413,1
0,3370,-0.39303124,1
0,3371,-0.43113007,1
0,3372,-0.38249414,1
0,3373,-0.3855271,1
0,3374,-0.39781294,1
0,3375,-0.38000766,1
0,3376,-0.44965858,1
0,3377,-0.38291185,1
0,3378,-0.40528287,1
0,3379,-0.44655153,1
0,3380,-0.41801188,1
0,3381,-0.52242672,1
0,3382,-0.58660627,1
0,3383,-0.54189127,1
0,3384,-0.52803501,1
0,3385,-0.630458,1
0,3386,-0.67773875,1
0,3387,-0.78250762,1
0,3388,-0.75699531,1
0,3389,-0.80657163,1
0,3390,-0.81540982,1
0,3391,-0.94057025,1
0,3392,-0.92872992,1
0,3393,-0.8500484,1
0,3394,-1.0483438,1
0,3395,-1.0571464,1
0,3396,-0.99891405,1
0,3397,-0.8496265,1
0,3398,-0.81930128,1
0,3399,-0.94959214,1
0,3400,-0.73403551,1
0,3401,-0.69334927,1
0,3402,-0.69371939,1
0,3403,-0.57494089,1
0,3404,-0.52024087,1
0,3405,-0.37474237,1
0,3406,-0.27194483,1
0,3407,-0.23045706,1
0,3408,-0.16232497,1
0,3409,-0.12311519,1
0,3410,-0.12781058,1
0,3411,-0.038097814,1
0,3412,0.025011559,1
0,3413,0.027463935,1
0,3414,-0.033556658,1
0,3415,-0.063766352,1
0,3416,0.019662478,1
0,3417,0.0036088755,1
0,3418,0.074925119,1
0,3419,0.05902338,1
0,3420,0.054363708,1
0,3421,0.055622915,1
0,3422,0.19214859,1
0,3423,0.18491272,1
0,3424,0.19466048,1
0,3425,0.24265443,1
0,3426,0.19634445,1
0,3427,0.25615634,1
0,3428,0.29341576,1
0,3429,0.35688955,1
0,3430,0.3795301,1
0,3431,0.3641632,1
0,3432,0.44100451,1
0,3433,0.51529898,1
0,3434,0.54605908,1
0,3435,0.58395612,1
0,3436,0.56825452,1
0,3437,0.56723801,1
0,3438,0.52694035,1
0,3439,0.45524263,1
0,3440,0.55270319,1
0,3441,0.54003814,1
0,3442,0.4184192,1
0,3443,0.43464404,1
0,3444,0.38302869,1
0,3445,0.47567602,1
0,3446,0.55452503,1
0,3447,0.44338743,1
0,3448,0.44678474,1
0,3449,0.33347381,1
0,3450,0.30718029,1
0,3451,0.42123391,1
0,3452,0.37668933,1
0,3453,0.44819125,1
0,3454,0.5904967,1
0,3455,0.59361885,1
0,3456,0.73164423,1
0,3457,0.92258976,1
0,3458,1.0506714,1
0,3459,1.1494727,1
0,3460,1.385669,1
0,3461,1.5852644,1
0,3462,2.0063573,1
0,3463,1.8395934,1
0,3464,1.7441506,1
0,3465,1.6606667,1
0,3466,1.4390026,1
0,3467,1.3449961,1
0,3468,1.2078937,1
0,3469,0.95911902,1
0,3470,0.57248896,1
0,3471,0.28502133,1
0,3472,0.019181261,1
0,3473,-0.16476017,1
0,3474,-0.17150074,1
0,3475,-0.21064068,1
0,3476,-0.19101575,1
0,3477,-0.19450168,1
0,3478,-0.22492012,1
0,3479,-0.081659856,1
0,3480,-0.14759527,1
0,3481,-0.19635249,1
0,3482,-0.27733297,1
0,3483,-0.18988301,1
0,3484,-0.13429032,1
0,3485,-0.26244434,1
0,3486,-0.19728138,1
0,3487,-0.080188709,1
0,3488,0.092408728,1
0,3489,0.65875227,1
0,3490,1.1474335,1
0,3491,1.16232,1
0,3492,1.2117657,1
0,3493,1.5263299,1
0,3494,1.7705728,1
0,3495,1.6156545,1
0,3496,1.2932948,1
0,3497,1.2431312,1
0,3498,1.7227841,1
0,3499,1.2959242,1
0,3500,0.53974315,1
0,3501,0.66577827,1
0,3502,-1.2755868,1
0,3503,-2.8466725,1
0,3504,-3.4999203,1
0,3505,-4.3828256,1
0,3506,-3.9606595,1
0,3507,-2.6571292,1
0,3508,-1.9283256,1
0,3509,-1.6057499,1
0,3510,-0.49802437,1
0,3511,-0.15959131,1
0,3512,-0.26229433,1
0,3513,-0.2158066,1
0,3514,-0.35805719,1
0,3515,-0.12267895,1
0,3516,-0.19591795,1
0,3517,-0.23573009,1
0,3518,-0.25887652,1
0,3519,-0.28534302,1
0,3520,-0.27224294,1
0,3521,-0.20864832,1
0,3522,-0.35890051,1
0,3523,-0.33653484,1
0,3524,-0.30833428,1
0,3525,-0.47299037,1
0,3526,-0.46103638,1
0,3527,-0.6779567,1
0,3528,-0.5569024,1
0,3529,-0.63148847,1
0,3530,-0.64732156,1
0,3531,-0.62686692,1
0,3532,-0.74758454,1
0,3533,-0.81791668,1
0,3534,-0.87850089,1
0,3535,-1.0072365,1
0,3536,-0.88886279,1
0,3537,-0.91875823,1
0,3538,-0.88380344,1
0,3539,-0.91614426,1
0,3540,-0.78574266,1
0,3541,-0.74282516,1
0,3542,-0.77872712,1
0,3543,-0.52738876,1
0,3544,-0.45069637,1
0,3545,-0.33725634,1
0,3546,-0.44836277,1
0,3547,-0.20223055,1
0,3548,-0.052745098,1
0,3549,0.050060651,1
0,3550,0.03123348,1
0,3551,0.019030958,1
0,3552,0.077311606,1
0,3553,0.15275405,1
0,3554,0.22407072,1
0,3555,0.18285287,1
0,3556,0.17402101,1
0,3557,0.21317111,1
0,3558,0.19662193,1
0,3559,0.30386597,1
0,3560,0.32717282,1
0,3561,0.24945462,1
0,3562,0.35215131,1
0,3563,0.28454264,1
0,3564,0.41482284,1
0,3565,0.36379539,1
0,3566,0.37091726,1
0,3567,0.44168846,1
0,3568,0.5293475,1
0,3569,0.51479212,1
0,3570,0.59539387,1
0,3571,0.61620006,1
0,3572,0.6227228,1
0,3573,0.67989023,1
0,3574,0.69780189,1
0,3575,0.66438999,1
0,3576,0.60376282,1
0,3577,0.58132698,1
0,3578,0.54369895,1
0,3579,0.60798227,1
0,3580,0.5750027,1
0,3581,0.5818646,1
0,3582,0.45329898,1
0,3583,0.54875176,1
0,3584,0.46008439,1
0,3585,0.40377508,1
0,3586,0.43668718,1
0,3587,0.30319839,1
0,3588,0.52220955,1
0,3589,0.42011605,1
0,3590,0.40439069,1
0,3591,0.42606907,1
0,3592,0.3229988,1
0,3593,0.38252697,1
0,3594,0.37488573,1
0,3595,0.24600978,1
0,3596,0.37031417,1
0,3597,0.33645748,1
0,3598,0.31923742,1
0,3599,0.28739721,1
0,3600,0.44056391,1
0,3601,0.5605358,1
0,3602,0.6725918,1
0,3603,0.98308367,1
0,3604,1.250987,1
0,3605,1.2321225,1
0,3606,1.6037983,1
0,3607,2.0192474,1
0,3608,2.3689359,1
0,3609,2.4217417,1
0,3610,2.3249546,1
0,3611,2.0540158,1
0,3612,1.7484411,1
0,3613,1.469141,1
0,3614,0.95481296,1
0,3615,0.25551384,1
0,3616,-0.25678169,1
0,3617,-0.31245957,1
0,3618,-0.46307532,1
0,3619,-0.35810362,1
0,3620,-0.36192758,1
0,3621,-0.31974422,1
0,3622,-0.4284515,1
0,3623,-0.29101471,1
0,3624,-0.4165944,1
0,3625,-0.45404297,1
0,3626,-0.37163922,1
0,3627,-0.36891769,1
0,3628,-0.29577989,1
0,3629,-0.46945451,1
0,3630,-0.32955958,1
0,3631,-0.23512916,1
0,3632,0.57473238,1
0,3633,1.0586076,1
0,3634,0.88663354,1
0,3635,1.2658479,1
0,3636,0.89577687,1
0,3637,-0.015879698,1
0,3638,-0.70528326,1
0,3639,0.037302077,1
0,3640,-1.1812944,1
0,3641,-2.3030416,1
0,3642,-2.8690724,1
0,3643,-3.9477131,1
0,3644,-4.5017257,1
0,3645,-4.172636,1
0,3646,-2.8633193,1
0,3647,-1.8925259,1
0,3648,-1.6618946,1
0,3649,-0.90185366,1
0,3650,-0.42296226,1
0,3651,-0.35216932,1
0,3652,-0.31962272,1
0,3653,-0.3624531,1
0,3654,-0.32147097,1
0,3655,-0.31601848,1
0,3656,-0.30239989,1
0,3657,-0.29278875,1
0,3658,-0.31629042,1
0,3659,-0.37401649,1
0,3660,-0.40876531,1
0,3661,-0.37756213,1
0,3662,-0.45878602,1
0,3663,-0.32972626,1
0,3664,-0.35042867,1
0,3665,-0.3905706,1
0,3666,-0.37661534,1
0,3667,-0.49349652,1
0,3668,-0.53217646,1
0,3669,-0.52083634,1
0,3670,-0.5268396,1
0,3671,-0.58827527,1
0,3672,-0.70819185,1
0,3673,-0.58291442,1
0,3674,-0.67049856,1
0,3675,-0.6965283,1
0,3676,-0.60066302,1
0,3677,-0.66001072,1
0,3678,-0.55897566,1
0,3679,-0.5096429,1
0,3680,-0.48079228,1
0,3681,-0.43953457,1
0,3682,-0.23169533,1
0,3683,-0.27486931,1
0,3684,-0.13580341,1
0,3685,-0.045989237,1
0,3686,-0.037749591,1
0,3687,-0.024957385,1
0,3688,0.041773124,1
0,3689,0.094939229,1
0,3690,0.036344124,1
0,3691,0.079783582,1
0,3692,-0.010793479,1
0,3693,-0.020771365,1
0,3694,0.062471703,1
0,3695,0.052274774,1
0,3696,0.034358128,1
0,3697,0.076343822,1
0,3698,0.11036141,1
0,3699,0.15902515,1
0,3700,0.15518926,1
0,3701,0.084530364,1
0,3702,0.14621472,1
0,3703,0.18893519,1
0,3704,0.17280614,1
0,3705,0.22756541,1
0,3706,0.34336578,1
0,3707,0.35084977,1
0,3708,0.37532397,1
0,3709,0.50768326,1
0,3710,0.52078155,1
0,3711,0.50579043,1
0,3712,0.62816008,1
0,3713,0.60065274,1
0,3714,0.61150578,1
0,3715,0.76158247,1
0,3716,0.72790847,1
0,3717,0.71032176,1
0,3718,0.72544749,1
0,3719,0.72428615,1
0,3720,0.69950391,1
0,3721,0.63137928,1
0,3722,0.65440274,1
0,3723,0.64315478,1
0,3724,0.55239524,1
0,3725,0.55395403,1
0,3726,0.49972895,1
0,3727,0.48831783,1
0,3728,0.5446444,1
0,3729,0.46806798,1
0,3730,0.45689787,1
0,3731,0.34836897,1
0,3732,0.39454985,1
0,3733,0.37838279,1
0,3734,0.44911324,1
0,3735,0.44913234,1
0,3736,0.47119333,1
0,3737,0.60283921,1
0,3738,0.72805079,1
0,3739,0.95745114,1
0,3740,0.98208292,1
0,3741,1.194129,1
0,3742,1.3256549,1
0,3743,1.5597034,1
0,3744,1.8182718,1
0,3745,1.7785442,1
0,3746,1.7723479,1
0,3747,1.4862491,1
0,3748,1.2911061,1
0,3749,1.1543137,1
0,3750,0.94550311,1
0,3751,0.70445071,1
0,3752,0.37119435,1
0,3753,0.12273796,1
0,3754,-0.16343212,1
0,3755,-0.23602729,1
0,3756,-0.25884412,1
0,3757,-0.21934264,1
0,3758,-0.23623563,1
0,3759,-0.26963146,1
0,3760,-0.27091142,1
0,3761,-0.24565979,1
0,3762,-0.2468644,1
0,3763,-0.28418314,1
0,3764,-0.2929094,1
0,3765,-0.24888735,1
0,3766,-0.23173258,1
0,3767,-0.2139102,1
0,3768,-0.13051102,1
0,3769,-0.0025714434,1
0,3770,0.52720359,1
0,3771,1.3251665,1
0,3772,1.3793144,1
0,3773,1.5430673,1
0,3774,1.7885211,1
0,3775,1.5066106,1
0,3776,0.77410683,1
0,3777,-0.13012066,1
0,3778,-0.28587388,1
0,3779,-0.45100638,1
0,3780,1.5319341,1
0,3781,0.92006083,1
0,3782,-0.49019514,1
0,3783,-2.0132361,1
0,3784,-2.8349715,1
0,3785,-3.4859333,1
0,3786,-3.2619857,1
0,3787,-2.3102226,1
0,3788,-1.7047485,1
0,3789,-1.678492,1
0,3790,-1.0249631,1
0,3791,-0.46375571,1
0,3792,-0.4059883,1
0,3793,-0.47395269,1
0,3794,-0.5444704,1
0,3795,-0.54019877,1
0,3796,-0.38263593,1
0,3797,-0.52568892,1
0,3798,-0.52663255,1
0,3799,-0.48389023,1
0,3800,-0.52939911,1
0,3801,-0.60754668,1
0,3802,-0.53614193,1
0,3803,-0.55977808,1
0,3804,-0.63062482,1
0,3805,-0.64403399,1
0,3806,-0.71965775,1
0,3807,-0.74621216,1
0,3808,-0.80129161,1
0,3809,-0.83125147,1
0,3810,-0.93636305,1
0,3811,-0.99338465,1
0,3812,-1.0413056,1
0,3813,-0.99045376,1
0,3814,-1.0151654,1
0,3815,-1.1421224,1
0,3816,-1.0958733,1
0,3817,-1.1345867,1
0,3818,-1.2256366,1
0,3819,-1.2343389,1
0,3820,-1.032637,1
0,3821,-1.0616449,1
0,3822,-0.96872443,1
0,3823,-0.89106257,1
0,3824,-0.89706557,1
0,3825,-0.69918268,1
0,3826,-0.56970454,1
0,3827,-0.48672667,1
0,3828,-0.43495531,1
0,3829,-0.44529865,1
0,3830,-0.33163052,1
0,3831,-0.40143314,1
0,3832,-0.25576798,1
0,3833,-0.29564955,1
0,3834,-0.1822898,1
0,3835,-0.26271806,1
0,3836,-0.20728578,1
0,3837,-0.14138264,1
0,3838,-0.2307739,1
0,3839,-0.2701736,1
0,3840,-0.11682102,1
0,3841,-0.066774103,1
0,3842,-0.085408819,1
0,3843,-0.075672403,1
0,3844,-0.10625849,1
0,3845,-0.056186868,1
0,3846,-0.056800564,1
0,3847,0.032967904,1
0,3848,0.07974603,1
0,3849,0.066111301,1
0,3850,0.11430137,1
0,3851,0.1444909,1
0,3852,0.20035268,1
0,3853,0.19316619,1
0,3854,0.21511008,1
0,3855,0.19237102,1
0,3856,0.21973675,1
0,3857,0.30044423,1
0,3858,0.35348397,1
0,3859,0.37657857,1
0,3860,0.28097237,1
0,3861,0.29525002,1
0,3862,0.32323472,1
0,3863,0.30642285,1
0,3864,0.19566208,1
0,3865,0.33184921,1
0,3866,0.31566277,1
0,3867,0.22959631,1
0,3868,0.27106936,1
0,3869,0.17288257,1
0,3870,0.23228515,1
0,3871,0.27666619,1
0,3872,0.27941326,1
0,3873,0.25461311,1
0,3874,0.25710105,1
0,3875,0.23943788,1
0,3876,0.25534277,1
0,3877,0.31346393,1
0,3878,0.32302693,1
0,3879,0.5482447,1
0,3880,0.66351336,1
0,3881,0.93341219,1
0,3882,1.11337,1
0,3883,1.2649505,1
0,3884,1.3222861,1
0,3885,1.54133,1
0,3886,1.9338962,1
0,3887,2.1014058,1
0,3888,2.1077607,1
0,3889,1.8906618,1
0,3890,1.7563078,1
0,3891,1.4807247,1
0,3892,1.2897951,1
0,3893,1.1097743,1
0,3894,0.79368808,1
0,3895,0.39240792,1
0,3896,0.21936851,1
0,3897,0.15716344,1
0,3898,0.18283827,1
0,3899,0.15403899,1
0,3900,0.18804016,1
0,3901,0.2415642,1
0,3902,0.16335092,1
0,3903,0.16571961,1
0,3904,0.21379007,1
0,3905,0.27231647,1
0,3906,0.29743529,1
0,3907,0.29761111,1
0,3908,0.3461292,1
0,3909,0.37220553,1
0,3910,0.5237021,1
0,3911,1.0161069,1
0,3912,1.2796179,1
0,3913,1.3614617,1
0,3914,1.7812398,1
0,3915,1.9776585,1
0,3916,2.2260395,1
0,3917,1.6367639,1
0,3918,1.8501208,1
0,3919,1.9345383,1
0,3920,-3.5278988,1
0,3921,-5.1176214,1
0,3922,-4.6348854,1
0,3923,-4.2264821,1
0,3924,-3.1004608,1
0,3925,-1.8977234,1
0,3926,-1.3063794,1
0,3927,-0.95246355,1
0,3928,-0.22899584,1
0,3929,-0.096762767,1
0,3930,-0.10039939,1
0,3931,-0.14531562,1
0,3932,-0.22673238,1
0,3933,-0.20863061,1
0,3934,-0.11870038,1
0,3935,-0.12326716,1
0,3936,-0.11270093,1
0,3937,-0.092833172,1
0,3938,-0.11836132,1
0,3939,-0.16458403,1
0,3940,-0.20724292,1
0,3941,-0.2354725,1
0,3942,-0.20329389,1
0,3943,-0.31138667,1
0,3944,-0.20927968,1
0,3945,-0.33625295,1
0,3946,-0.32384776,1
0,3947,-0.3034379,1
0,3948,-0.46315128,1
0,3949,-0.46810003,1
0,3950,-0.52522517,1
0,3951,-0.51709173,1
0,3952,-0.49090168,1
0,3953,-0.51979725,1
0,3954,-0.4829972,1
0,3955,-0.52502126,1
0,3956,-0.47864142,1
0,3957,-0.44987616,1
0,3958,-0.37106151,1
0,3959,-0.38265832,1
0,3960,-0.3149348,1
0,3961,-0.27689817,1
0,3962,-0.19122278,1
0,3963,-0.063774495,1
0,3964,0.010648972,1
0,3965,0.12829405,1
0,3966,0.11960891,1
0,3967,0.05618445,1
0,3968,0.1240261,1
0,3969,0.029956025,1
0,3970,0.12554694,1
0,3971,0.068790394,1
0,3972,0.11145748,1
0,3973,0.13217555,1
0,3974,0.130284,1
0,3975,0.25444573,1
0,3976,0.14509803,1
0,3977,0.11610713,1
0,3978,0.18401278,1
0,3979,0.17098627,1
0,3980,0.21093189,1
0,3981,0.16077589,1
0,3982,0.19382443,1
0,3983,0.24373129,1
0,3984,0.16759281,1
0,3985,0.23573399,1
0,3986,0.21708743,1
0,3987,0.36530803,1
0,3988,0.40437415,1
0,3989,0.49726146,1
0,3990,0.47388264,1
0,3991,0.49958306,1
0,3992,0.57845532,1
0,3993,0.55124725,1
0,3994,0.53082538,1
0,3995,0.51126302,1
0,3996,0.56318346,1
0,3997,0.49229337,1
0,3998,0.53199966,1
0,3999,0.39049468,1
0,4000,0.41995837,1
0,4001,0.45222366,1
0,4002,0.4677941,1
0,4003,0.34265229,1
0,4004,0.34846811,1
0,4005,0.36427926,1
0,4006,0.45477018,1
0,4007,0.35674341,1
0,4008,0.25977291,1
0,4009,0.20937706,1
0,4010,0.3295839,1
0,4011,0.35632333,1
0,4012,0.34212987,1
0,4013,0.45238258,1
0,4014,0.38016142,1
0,4015,0.57838519,1
0,4016,0.75379566,1
0,4017,0.94876976,1
0,4018,1.1072944,1
0,4019,1.2456671,1
0,4020,1.4418087,1
0,4021,1.6185204,1
0,4022,1.9077949,1
0,4023,1.7563464,1
0,4024,1.751461,1
0,4025,1.6080901,1
0,4026,1.5092519,1
0,4027,1.1400909,1
0,4028,1.0280192,1
0,4029,0.76389657,1
0,4030,0.30182115,1
0,4031,0.097500333,1
0,4032,-0.28198831,1
0,4033,-0.3168763,1
0,4034,-0.30189454,1
0,4035,-0.42390934,1
0,4036,-0.35410328,1
0,4037,-0.46057341,1
0,4038,-0.42164963,1
0,4039,-0.37022628,1
0,4040,-0.36738084,1
0,4041,-0.33985916,1
0,4042,-0.49681088,1
0,4043,-0.43025647,1
0,4044,-0.37415261,1
0,4045,-0.32147476,1
0,4046,-0.33527052,1
0,4047,-0.25728506,1
0,4048,-0.033733438,1
0,4049,0.35022026,1
0,4050,0.68510854,1
0,4051,0.75605137,1
0,4052,0.96795751,1
0,4053,0.97546498,1
0,4054,0.91487281,1
0,4055,0.64002228,1
0,4056,0.51170596,1
0,4057,0.52346601,1
0,4058,0.80512981,1
0,4059,-0.91239468,1
0,4060,-0.77586665,1
0,4061,-3.4141412,1
0,4062,-4.0897041,1
0,4063,-4.0645668,1
0,4064,-4.0340122,1
0,4065,-3.6645482,1
0,4066,-2.4578752,1
0,4067,-1.2954524,1
0,4068,-1.2498051,1
0,4069,-0.83788186,1
0,4070,-0.25690192,1
0,4071,-0.22376786,1
0,4072,-0.31944246,1
0,4073,-0.24578289,1
0,4074,-0.2911414,1
0,4075,-0.3124142,1
0,4076,-0.28363454,1
0,4077,-0.24817583,1
0,4078,-0.24672239,1
0,4079,-0.31293595,1
0,4080,-0.27232791,1
0,4081,-0.28380233,1
0,4082,-0.36983097,1
0,4083,-0.32725332,1
0,4084,-0.32802597,1
0,4085,-0.3559002,1
0,4086,-0.31206165,1
0,4087,-0.43861477,1
0,4088,-0.41395306,1
0,4089,-0.42674374,1
0,4090,-0.40046796,1
0,4091,-0.52517868,1
0,4092,-0.48744114,1
0,4093,-0.48894671,1
0,4094,-0.52939568,1
0,4095,-0.56711283,1
0,4096,-0.61573041,1
0,4097,-0.45669982,1
0,4098,-0.45863346,1
0,4099,-0.49072884,1
0,4100,-0.45091905,1
0,4101,-0.3928356,1
0,4102,-0.25424995,1
0,4103,-0.25761573,1
0,4104,-0.19182119,1
0,4105,-0.13785891,1
0,4106,-0.10702689,1
0,4107,-0.069024033,1
0,4108,-0.023093408,1
0,4109,-0.025411365,1
0,4110,0.046335772,1
0,4111,0.022994897,1
0,4112,-0.04654788,1
0,4113,-0.039304581,1
0,4114,-0.094578251,1
0,4115,-0.012033971,1
0,4116,-0.085144908,1
0,4117,-0.0604547,1
0,4118,0.021065185,1
0,4119,0.013211655,1
0,4120,0.055273358,1
0,4121,-0.0027854257,1
0,4122,0.069090761,1
0,4123,0.14216315,1
0,4124,0.095263275,1
0,4125,0.16341318,1
0,4126,0.18068393,1
0,4127,0.19201906,1
0,4128,0.20937459,1
0,4129,0.26570768,1
0,4130,0.3131867,1
0,4131,0.23153509,1
0,4132,0.2881695,1
0,4133,0.37111119,1
0,4134,0.38302611,1
0,4135,0.42409379,1
0,4136,0.37787192,1
0,4137,0.33522007,1
0,4138,0.46049148,1
0,4139,0.40768661,1
0,4140,0.27994632,1
0,4141,0.42587356,1
0,4142,0.43725158,1
0,4143,0.51838351,1
0,4144,0.42398827,1
0,4145,0.35165145,1
0,4146,0.35484225,1
0,4147,0.37693674,1
0,4148,0.28507763,1
0,4149,0.41116385,1
0,4150,0.38251967,1
0,4151,0.28237869,1
0,4152,0.4431978,1
0,4153,0.46151259,1
0,4154,0.61937302,1
0,4155,0.70372827,1
0,4156,0.93037059,1
0,4157,1.1643901,1
0,4158,1.1758863,1
0,4159,1.3012435,1
0,4160,1.5957675,1
0,4161,1.7844234,1
0,4162,1.7908844,1
0,4163,1.710692,1
0,4164,1.6985941,1
0,4165,1.5589452,1
0,4166,1.3676942,1
0,4167,1.223756,1
0,4168,0.95100455,1
0,4169,0.61745581,1
0,4170,0.22432246,1
0,4171,-0.0018565749,1
0,4172,-0.12858619,1
0,4173,-0.19396516,1
0,4174,-0.0084248823,1
0,4175,-0.058990739,1
0,4176,-0.10641843,1
0,4177,0.049975619,1
0,4178,-0.10216298,1
0,4179,-0.026576279,1
0,4180,-0.046325257,1
0,4181,-0.1208893,1
0,4182,-0.010477954,1
0,4183,-0.079140053,1
0,4184,-0.1053885,1
0,4185,-0.0063806108,1
0,4186,0.0530283,1
0,4187,0.19052557,1
0,4188,0.34287154,1
0,4189,0.86578374,1
0,4190,1.1419171,1
0,4191,1.3063473,1
0,4192,1.4653673,1
0,4193,1.3870172,1
0,4194,1.3206688,1
0,4195,0.88216926,1
0,4196,0.96623098,1
0,4197,1.0659013,1
0,4198,0.44012228,1
0,4199,-1.9802592,1
0,4200,-0.03594174,1
0,4201,-0.27819632,1
0,4202,-0.38375438,1
0,4203,-0.3727249,1
0,4204,-0.13322346,1
0,4205,-0.27698825,1
0,4206,-0.42173103,1
0,4207,-0.34688683,1
0,4208,-0.17848876,1
0,4209,-0.23167341,1
0,4210,-0.33658328,1
0,4211,-0.36185316,1
0,4212,-0.39472756,1
0,4213,-0.27869383,1
0,4214,-0.43282635,1
0,4215,-0.47154981,1
0,4216,-0.25778203,1
0,4217,-0.2212151,1
0,4218,-0.50988523,1
0,4219,-0.61322237,1
0,4220,-0.52728633,1
0,4221,-0.42310865,1
0,4222,-0.35329614,1
0,4223,-0.43583758,1
0,4224,-0.47465857,1
0,4225,-0.56081595,1
0,4226,-0.6298408,1
0,4227,-0.32000241,1
0,4228,-0.16477071,1
0,4229,-0.12716885,1
0,4230,-0.2542404,1
0,4231,-0.38167703,1
0,4232,-0.18103816,1
0,4233,-0.079146549,1
0,4234,0.0055061941,1
0,4235,0.17496344,1
0,4236,0.056961658,1
0,4237,0.15747088,1
0,4238,0.19106629,1
0,4239,0.1036615,1
0,4240,0.081361279,1
0,4241,-0.00043422405,1
0,4242,0.083364445,1
0,4243,0.26657818,1
0,4244,0.19222838,1
0,4245,0.068638075,1
0,4246,-0.039912439,1
0,4247,-0.010877671,1
0,4248,0.084594449,1
0,4249,0.11324985,1
0,4250,0.31539678,1
0,4251,0.048520299,1
0,4252,-0.057953596,1
0,4253,0.13753469,1
0,4254,0.28042693,1
0,4255,0.096707309,1
0,4256,0.016027691,1
0,4257,0.08250228,1
0,4258,0.25014234,1
0,4259,0.41530302,1
0,4260,0.51669519,1
0,4261,0.57008307,1
0,4262,0.52925349,1
0,4263,0.62179339,1
0,4264,0.65384684,1
0,4265,0.68988785,1
0,4266,0.66758986,1
0,4267,0.76422407,1
0,4268,0.75545274,1
0,4269,0.61065201,1
0,4270,0.53165018,1
0,4271,0.56035374,1
0,4272,0.48819073,1
0,4273,0.61981582,1
0,4274,0.68931228,1
0,4275,0.51892443,1
0,4276,0.50861831,1
0,4277,0.53729969,1
0,4278,0.83561964,1
0,4279,1.0504299,1
0,4280,1.0520813,1
0,4281,1.0422228,1
0,4282,1.32396,1
0,4283,1.5725561,1
0,4284,1.836701,1
0,4285,2.1411136,1
0,4286,2.0524633,1
0,4287,1.9747949,1
0,4288,1.9915372,1
0,4289,1.7877544,1
0,4290,1.3901971,1
0,4291,1.0999058,1
0,4292,0.82331555,1
0,4293,0.69379178,1
0,4294,0.37016199,1
0,4295,0.10351141,1
0,4296,-0.15145786,1
0,4297,-0.30922505,1
0,4298,-0.3255634,1
0,4299,-0.29672621,1
0,4300,-0.42837449,1
0,4301,-0.27819081,1
0,4302,-0.31271101,1
0,4303,-0.36018885,1
0,4304,-0.33416367,1
0,4305,-0.25912905,1
0,4306,-0.073196109,1
0,4307,-0.29171138,1
0,4308,-0.49868986,1
0,4309,-0.41435682,1
0,4310,-0.11853838,1
0,4311,0.33292736,1
0,4312,0.86438664,1
0,4313,1.1097002,1
0,4314,0.88892184,1
0,4315,0.93933787,1
0,4316,0.99555397,1
0,4317,0.8067606,1
0,4318,0.51315745,1
0,4319,0.10589958,1
0,4320,0.47615629,1
0,4321,0.68152015,1
0,4322,-0.1672576,1
0,4323,-1.6829375,1
0,4324,-2.7097641,1
0,4325,-3.4355172,1
0,4326,-4.2796184,1
0,4327,-4.2900157,1
0,4328,-3.6475984,1
0,4329,-2.2284106,1
0,4330,-1.6046026,1
0,4331,-1.4703591,1
0,4332,-0.69271005,1
0,4333,-0.47049683,1
0,4334,-0.45414559,1
0,4335,-0.34407644,1
0,4336,-0.41212822,1
0,4337,-0.41674938,1
0,4338,-0.24737942,1
0,4339,-0.34628536,1
0,4340,-1.3132285,1
0,4341,-1.9628833,1
0,4342,-0.84626258,1
0,4343,-1.4005536,1
0,4344,-1.3682153,1
0,4345,-1.6259806,1
0,4346,-1.3467619,1
0,4347,-0.97069563,1
0,4348,-0.29910008,1
0,4349,-0.01579098,1
0,4350,0.28759577,1
0,4351,0.44026139,1
0,4352,0.51403801,1
0,4353,0.80093535,1
0,4354,0.87091838,1
0,4355,0.92139713,1
0,4356,1.0110805,1
0,4357,1.0452318,1
0,4358,1.1832578,1
0,4359,1.2097477,1
0,4360,1.311628,1
0,4361,1.3760637,1
0,4362,1.393931,1
0,4363,1.3324992,1
0,4364,1.5412806,1
0,4365,1.5794174,1
0,4366,1.5161994,1
0,4367,1.5829409,1
0,4368,1.5380828,1
0,4369,1.6238002,1
0,4370,1.6252494,1
0,4371,1.5421308,1
0,4372,1.5419687,1
0,4373,1.5073045,1
0,4374,1.4092127,1
0,4375,1.2950179,1
0,4376,1.1165366,1
0,4377,1.0592253,1
0,4378,1.0624859,1
0,4379,0.93777282,1
0,4380,0.66971788,1
0,4381,0.50058299,1
0,4382,0.50105465,1
0,4383,0.47631491,1
0,4384,0.46703381,1
0,4385,0.46638023,1
0,4386,0.36759587,1
0,4387,0.40084873,1
0,4388,0.39112101,1
0,4389,0.48143856,1
0,4390,0.5459974,1
0,4391,0.45298527,1
0,4392,0.48543593,1
0,4393,0.50091323,1
0,4394,0.39955962,1
0,4395,0.40103803,1
0,4396,0.47223301,1
0,4397,0.42087129,1
0,4398,0.35209144,1
0,4399,0.40504492,1
0,4400,0.36221199,1
0,4401,0.19937785,1
0,4402,0.24458334,1
0,4403,0.12712121,1
0,4404,0.15831568,1
0,4405,0.17077731,1
0,4406,0.22411919,1
0,4407,0.14766888,1
0,4408,0.077334996,1
0,4409,0.08308718,1
0,4410,0.12218481,1
0,4411,0.15703363,1
0,4412,0.12523404,1
0,4413,0.11804396,1
0,4414,0.066736873,1
0,4415,-0.00072671436,1
0,4416,-0.0037090883,1
0,4417,-0.11378313,1
0,4418,0.00366831,1
0,4419,-0.01684882,1
0,4420,0.043134565,1
0,4421,0.0076624084,1
0,4422,-0.023449371,1
0,4423,-0.043156341,1
0,4424,-0.073778098,1
0,4425,-0.11633432,1
0,4426,-0.1031898,1
0,4427,-0.11669772,1
0,4428,-0.16597833,1
0,4429,-0.23050498,1
0,4430,-0.27657196,1
0,4431,-0.19884823,1
0,4432,-0.25443444,1
0,4433,-0.28521273,1
0,4434,-0.23016571,1
0,4435,-0.19552775,1
0,4436,-0.29783595,1
0,4437,-0.31881543,1
0,4438,-0.35075548,1
0,4439,-0.37272823,1
0,4440,-0.36130256,1
0,4441,-0.41187502,1
0,4442,-0.3518596,1
0,4443,-0.36031775,1
0,4444,-0.37256816,1
0,4445,-0.29931491,1
0,4446,-0.19609028,1
0,4447,-0.076184845,1
0,4448,0.19939178,1
0,4449,0.45701588,1
0,4450,0.69059228,1
0,4451,0.95615584,1
0,4452,0.92102302,1
0,4453,0.8538653,1
0,4454,0.67936159,1
0,4455,0.34334548,1
0,4456,0.039061087,1
0,4457,-0.23579707,1
0,4458,-0.69348205,1
0,4459,-1.1577509,1
0,4460,-1.3786883,1
0,4461,-1.6035594,1
0,4462,-1.5251421,1
0,4463,-1.4711638,1
0,4464,-1.5116522,1
0,4465,-1.6084322,1
0,4466,-1.64717,1
0,4467,-1.6966136,1
0,4468,-1.7331055,1
0,4469,-1.6869595,1
0,4470,-1.741845,1
0,4471,-1.4790494,1
0,4472,-0.69129949,1
0,4473,-0.44632661,1
0,4474,-0.78760618,1
0,4475,-1.7799741,1
0,4476,-2.4583453,1
0,4477,-3.057529,1
0,4478,-2.4051707,1
0,4479,-2.7488784,1
0,4480,-2.0956639,1
0,4481,-4.182035,1
0,4482,-4.3009498,1
0,4483,-4.2473509,1
0,4484,-3.8246242,1
0,4485,-2.9645634,1
0,4486,-1.7487328,1
0,4487,-1.449283,1
0,4488,-1.0171378,1
0,4489,-0.39008677,1
0,4490,-0.29072688,1
0,4491,-0.26052276,1
0,4492,-0.23750703,1
0,4493,-0.26549275,1
0,4494,-0.19828583,1
0,4495,-0.23660331,1
0,4496,-0.20368769,1
0,4497,-0.10487981,1
0,4498,-0.21819631,1
0,4499,-0.22008855,1
0,4500,-0.18128266,1
0,4501,-0.18361951,1
0,4502,-0.20982728,1
0,4503,-0.24887323,1
0,4504,-0.31902542,1
0,4505,-0.17285097,1
0,4506,-0.26864919,1
0,4507,-0.33467946,1
0,4508,-0.28681933,1
0,4509,-0.41692742,1
0,4510,-0.38194531,1
0,4511,-0.44086993,1
0,4512,-0.52672186,1
0,4513,-0.43093113,1
0,4514,-0.50947227,1
0,4515,-0.49597668,1
0,4516,-0.3952438,1
0,4517,-0.39171115,1
0,4518,-0.36536185,1
0,4519,-0.3609917,1
0,4520,-0.30909023,1
0,4521,-0.21331618,1
0,4522,-0.12583758,1
0,4523,-0.021390649,1
0,4524,-0.00018562938,1
0,4525,0.15293745,1
0,4526,0.1049435,1
0,4527,0.14463593,1
0,4528,0.16495015,1
0,4529,0.24759814,1
0,4530,0.14809613,1
0,4531,0.16675634,1
0,4532,0.13713657,1
0,4533,0.13129427,1
0,4534,0.10536733,1
0,4535,0.11716509,1
0,4536,0.14491129,1
0,4537,0.22432627,1
0,4538,0.20799413,1
0,4539,0.18391872,1
0,4540,0.30754224,1
0,4541,0.21131498,1
0,4542,0.2117446,1
0,4543,0.24568629,1
0,4544,0.29402975,1
0,4545,0.27200059,1
0,4546,0.29116733,1
0,4547,0.41455202,1
0,4548,0.44032737,1
0,4549,0.5027237,1
0,4550,0.44864757,1
0,4551,0.50139391,1
0,4552,0.49333595,1
0,4553,0.46928612,1
0,4554,0.5929762,1
0,4555,0.43152913,1
0,4556,0.60919444,1
0,4557,0.6225175,1
0,4558,0.58681271,1
0,4559,0.53970837,1
0,4560,0.47911694,1
0,4561,0.44646713,1
0,4562,0.49923793,1
0,4563,0.4937601,1
0,4564,0.41344355,1
0,4565,0.41231733,1
0,4566,0.41506048,1
0,4567,0.29492111,1
0,4568,0.34250948,1
0,4569,0.40793198,1
0,4570,0.33023249,1
0,4571,0.46374836,1
0,4572,0.40314981,1
0,4573,0.42510081,1
0,4574,0.55648479,1
0,4575,0.70465059,1
0,4576,0.82816734,1
0,4577,1.0691053,1
0,4578,1.0935423,1
0,4579,1.3437518,1
0,4580,1.5543795,1
0,4581,1.8183417,1
0,4582,1.8572515,1
0,4583,1.849837,1
0,4584,1.8316143,1
0,4585,1.5866426,1
0,4586,1.3741176,1
0,4587,1.1134232,1
0,4588,0.79445511,1
0,4589,0.47582202,1
0,4590,0.14329084,1
0,4591,-0.16554804,1
0,4592,-0.27541546,1
0,4593,-0.40622216,1
0,4594,-0.44700204,1
0,4595,-0.43605087,1
0,4596,-0.48267886,1
0,4597,-0.48197522,1
0,4598,-0.4206864,1
0,4599,-0.55994179,1
0,4600,-0.62854377,1
0,4601,-0.48475057,1
0,4602,-0.38145165,1
0,4603,-0.40206931,1
0,4604,-0.48160981,1
0,4605,-0.4484446,1
0,4606,-0.41002531,1
0,4607,-0.33670383,1
0,4608,-0.067116417,1
0,4609,0.38936092,1
0,4610,0.81561905,1
0,4611,0.85431636,1
0,4612,1.0248215,1
0,4613,1.1621182,1
0,4614,0.99027401,1
0,4615,0.71492711,1
0,4616,0.54892886,1
0,4617,0.82619628,1
0,4618,0.82778817,1
0,4619,-1.4804925,1
0,4620,-0.65713662,1
0,4621,-1.4969218,1
0,4622,-2.0119899,1
0,4623,-2.4230953,1
0,4624,-2.6757808,1
0,4625,-2.6018607,1
0,4626,-2.1598373,1
0,4627,-1.7090852,1
0,4628,-1.688696,1
0,4629,-1.4958077,1
0,4630,-1.1259194,1
0,4631,-1.0565501,1
0,4632,-1.0455331,1
0,4633,-1.0517574,1
0,4634,-1.0651333,1
0,4635,-1.048416,1
0,4636,-1.0139468,1
0,4637,-1.0755722,1
0,4638,-1.0589594,1
0,4639,-0.9871264,1
0,4640,-0.97901217,1
0,4641,-0.99743505,1
0,4642,-0.97482263,1
0,4643,-1.0195989,1
0,4644,-0.99205812,1
0,4645,-0.94525342,1
0,4646,-0.95425021,1
0,4647,-0.98097029,1
0,4648,-0.96693412,1
0,4649,-0.97539749,1
0,4650,-0.91961537,1
0,4651,-0.92278445,1
0,4652,-0.9354831,1
0,4653,-0.94447603,1
0,4654,-0.97372083,1
0,4655,-0.95864742,1
0,4656,-0.92900695,1
0,4657,-0.89290367,1
0,4658,-0.92300977,1
0,4659,-0.85828141,1
0,4660,-0.82267561,1
0,4661,-0.85735523,1
0,4662,-0.83722458,1
0,4663,-0.74599086,1
0,4664,-0.73071174,1
0,4665,-0.69663011,1
0,4666,-0.63155637,1
0,4667,-0.54986399,1
0,4668,-0.51378843,1
0,4669,-0.46025407,1
0,4670,-0.42979258,1
0,4671,-0.39054221,1
0,4672,-0.33958171,1
0,4673,-0.28790892,1
0,4674,-0.30171789,1
0,4675,-0.32181647,1
0,4676,-0.29499983,1
0,4677,-0.21417627,1
0,4678,-0.20649537,1
0,4679,-0.18435398,1
0,4680,-0.1840283,1
0,4681,-0.12946061,1
0,4682,-0.13105613,1
0,4683,-0.159019,1
0,4684,-0.11915344,1
0,4685,-0.029199787,1
0,4686,0.022764199,1
0,4687,0.058657996,1
0,4688,0.029185737,1
0,4689,0.057545604,1
0,4690,0.07640926,1
0,4691,0.10167759,1
0,4692,0.17396602,1
0,4693,0.19479359,1
0,4694,0.21366527,1
0,4695,0.24949699,1
0,4696,0.25148255,1
0,4697,0.24204967,1
0,4698,0.30129119,1
0,4699,0.31519622,1
0,4700,0.29942738,1
0,4701,0.36026555,1
0,4702,0.37871864,1
0,4703,0.36281402,1
0,4704,0.4061936,1
0,4705,0.42138802,1
0,4706,0.40339707,1
0,4707,0.45184163,1
0,4708,0.45226997,1
0,4709,0.43814653,1
0,4710,0.47611158,1
0,4711,0.52982753,1
0,4712,0.47402428,1
0,4713,0.46334592,1
0,4714,0.49583032,1
0,4715,0.57881087,1
0,4716,0.57546171,1
0,4717,0.5480032,1
0,4718,0.66323708,1
0,4719,0.79411457,1
0,4720,0.85691622,1
0,4721,0.91773249,1
0,4722,1.1191012,1
0,4723,1.2563839,1
0,4724,1.368375,1
0,4725,1.4669721,1
0,4726,1.5243136,1
0,4727,1.5556301,1
0,4728,1.4772998,1
0,4729,1.4991792,1
0,4730,1.322247,1
0,4731,1.189848,1
0,4732,1.0410602,1
0,4733,0.8880061,1
0,4734,0.79625852,1
0,4735,0.77664463,1
0,4736,0.80599559,1
0,4737,0.79361085,1
0,4738,0.79260365,1
0,4739,0.86883846,1
0,4740,0.83556101,1
0,4741,0.88324466,1
0,4742,0.91605192,1
0,4743,0.906829,1
0,4744,0.9224029,1
0,4745,0.91472618,1
0,4746,0.95711102,1
0,4747,1.0120195,1
0,4748,1.076993,1
0,4749,1.2008247,1
0,4750,1.5447187,1
0,4751,1.6901301,1
0,4752,1.6016862,1
0,4753,1.6080903,1
0,4754,1.4758119,1
0,4755,1.4250317,1
0,4756,1.3926676,1
0,4757,1.3749784,1
0,4758,1.587308,1
0,4759,1.5575253,1
0,4760,1.0066612,1
0,4761,-0.7129771,1
0,4762,-2.1090848,1
0,4763,-3.2562893,1
0,4764,-4.0037859,1
0,4765,-3.3199764,1
0,4766,-2.2244663,1
0,4767,-1.8241457,1
0,4768,-1.6001011,1
0,4769,-0.55259014,1
0,4770,-0.3739103,1
0,4771,-0.44742468,1
0,4772,-0.34219461,1
0,4773,-0.40622256,1
0,4774,-0.41756929,1
0,4775,-0.46513571,1
0,4776,-0.41796292,1
0,4777,-0.40866813,1
0,4778,-0.43360333,1
0,4779,-0.50414263,1
0,4780,-0.44853792,1
0,4781,-0.49157178,1
0,4782,-0.5398227,1
0,4783,-0.51206043,1
0,4784,-0.61953756,1
0,4785,-0.65659449,1
0,4786,-0.68968956,1
0,4787,-0.7080083,1
0,4788,-0.83093297,1
0,4789,-0.8989634,1
0,4790,-1.0342897,1
0,4791,-1.1046903,1
0,4792,-1.198025,1
0,4793,-1.2683603,1
0,4794,-1.2505573,1
0,4795,-1.2656655,1
0,4796,-1.3382759,1
0,4797,-1.2544975,1
0,4798,-1.2814043,1
0,4799,-1.35122,1
0,4800,-1.2037743,1
0,4801,-1.1771272,1
0,4802,-0.96441222,1
0,4803,-0.78746019,1
0,4804,-0.75133941,1
0,4805,-0.61495838,1
0,4806,-0.42236376,1
0,4807,-0.3557697,1
0,4808,-0.36892632,1
0,4809,-0.18958694,1
0,4810,-0.08735497,1
0,4811,-0.1067993,1
0,4812,-0.024060782,1
0,4813,0.086023327,1
0,4814,0.096182184,1
0,4815,0.05584959,1
0,4816,0.11143703,1
0,4817,0.098288066,1
0,4818,0.12158504,1
0,4819,0.25785483,1
0,4820,0.2776992,1
0,4821,0.23024446,1
0,4822,0.32278443,1
0,4823,0.33279007,1
0,4824,0.3717832,1
0,4825,0.39660805,1
0,4826,0.48080728,1
0,4827,0.44951196,1
0,4828,0.59489562,1
0,4829,0.59832728,1
0,4830,0.6303593,1
0,4831,0.78072763,1
0,4832,0.71125791,1
0,4833,0.7462931,1
0,4834,0.72843059,1
0,4835,0.75243547,1
0,4836,0.83538614,1
0,4837,0.81141918,1
0,4838,0.75235914,1
0,4839,0.67520638,1
0,4840,0.70963329,1
0,4841,0.62715045,1
0,4842,0.62487548,1
0,4843,0.57856255,1
0,4844,0.48555178,1
0,4845,0.59108421,1
0,4846,0.44955476,1
0,4847,0.42294888,1
0,4848,0.48019564,1
0,4849,0.48082884,1
0,4850,0.54639171,1
0,4851,0.46715638,1
0,4852,0.50380302,1
0,4853,0.45716534,1
0,4854,0.40155583,1
0,4855,0.30595947,1
0,4856,0.38830788,1
0,4857,0.35841219,1
0,4858,0.37315242,1
0,4859,0.33895939,1
0,4860,0.51027136,1
0,4861,0.89478111,1
0,4862,1.0758612,1
0,4863,1.2532434,1
0,4864,1.2825729,1
0,4865,1.4882262,1
0,4866,1.8085845,1
0,4867,2.0609236,1
0,4868,2.1155949,1
0,4869,1.9716631,1
0,4870,1.683164,1
0,4871,1.4041757,1
0,4872,1.2983275,1
0,4873,1.0039463,1
0,4874,0.49367566,1
0,4875,-0.080993839,1
0,4876,-0.24116658,1
0,4877,-0.23680335,1
0,4878,-0.20696075,1
0,4879,-0.30108013,1
0,4880,-0.19850304,1
0,4881,-0.15594015,1
0,4882,-0.24216883,1
0,4883,-0.27084712,1
0,4884,-0.23878201,1
0,4885,-0.17448092,1
0,4886,-0.17427278,1
0,4887,-0.19337637,1
0,4888,-0.26325947,1
0,4889,-0.18303922,1
0,4890,-0.051285894,1
0,4891,0.088748039,1
0,4892,0.71794064,1
0,4893,0.77113119,1
0,4894,0.9227547,1
0,4895,1.6828384,1
0,4896,1.8072319,1
0,4897,1.6421347,1
0,4898,0.7774028,1
0,4899,1.1701989,1
0,4900,0.30348816,1
0,4901,-1.7968885,1
0,4902,-3.596764,1
0,4903,-4.6180827,1
0,4904,-4.1050392,1
0,4905,-3.1325418,1
0,4906,-2.0192505,1
0,4907,-1.6992669,1
0,4908,-1.3280904,1
0,4909,-0.50738745,1
0,4910,-0.23311003,1
0,4911,-0.24053034,1
0,4912,-0.20217516,1
0,4913,-0.22366625,1
0,4914,-0.20151393,1
0,4915,-0.22774311,1
0,4916,-0.19379435,1
0,4917,-0.23683051,1
0,4918,-0.35325727,1
0,4919,-0.32973858,1
0,4920,-0.3433155,1
0,4921,-0.31320709,1
0,4922,-0.41662268,1
0,4923,-0.49438313,1
0,4924,-0.47179546,1
0,4925,-0.52165392,1
0,4926,-0.62201846,1
0,4927,-0.62049198,1
0,4928,-0.66479543,1
0,4929,-0.67155879,1
0,4930,-0.79031272,1
0,4931,-0.83646439,1
0,4932,-0.79337559,1
0,4933,-0.90850577,1
0,4934,-0.89887636,1
0,4935,-1.0301765,1
0,4936,-0.97946788,1
0,4937,-0.99023204,1
0,4938,-0.82533645,1
0,4939,-0.76894357,1
0,4940,-0.7846585,1
0,4941,-0.76817829,1
0,4942,-0.58584428,1
0,4943,-0.50495369,1
0,4944,-0.38683873,1
0,4945,-0.22703286,1
0,4946,-0.1709426,1
0,4947,-0.19454888,1
0,4948,-0.13051014,1
0,4949,-0.091583122,1
0,4950,-0.073212875,1
0,4951,-0.083431312,1
0,4952,-0.02779206,1
0,4953,-0.021481551,1
0,4954,-0.062410324,1
0,4955,0.059280957,1
0,4956,0.027505092,1
0,4957,-0.02359003,1
0,4958,-0.051860983,1
0,4959,-0.036831308,1
0,4960,0.080716952,1
0,4961,0.029480616,1
0,4962,0.040966475,1
0,4963,0.16436447,1
0,4964,0.031342633,1
0,4965,0.18373146,1
0,4966,0.18402676,1
0,4967,0.27952368,1
0,4968,0.34521901,1
0,4969,0.30478437,1
0,4970,0.44162112,1
0,4971,0.50705826,1
0,4972,0.53495615,1
0,4973,0.53556811,1
0,4974,0.58960925,1
0,4975,0.6013208,1
0,4976,0.63313986,1
0,4977,0.60217601,1
0,4978,0.61877195,1
0,4979,0.6002418,1
0,4980,0.62314344,1
0,4981,0.55908982,1
0,4982,0.55388581,1
0,4983,0.51728932,1
0,4984,0.48322545,1
0,4985,0.50214778,1
0,4986,0.32438661,1
0,4987,0.34439911,1
0,4988,0.28434578,1
0,4989,0.35189409,1
0,4990,0.34036264,1
0,4991,0.32246899,1
0,4992,0.32694402,1
0,4993,0.28283712,1
0,4994,0.30063829,1
0,4995,0.20407909,1
0,4996,0.26974157,1
0,4997,0.49914561,1
0,4998,0.52550642,1
0,4999,0.76900806,1
0,5000,1.0248554,1
0,5001,1.162039,1
0,5002,1.2208872,1
0,5003,1.4091727,1
0,5004,1.6314473,1
0,5005,1.7162755,1
0,5006,1.6502655,1
0,5007,1.4860197,1
0,5008,1.1841308,1
0,5009,1.0239299,1
0,5010,0.85183116,1
0,5011,0.78951446,1
0,5012,0.53565185,1
0,5013,0.1298832,1
0,5014,-0.052806075,1
0,5015,-0.13249154,1
0,5016,-0.2206066,1
0,5017,-0.22989963,1
0,5018,-0.20312591,1
0,5019,-0.20478751,1
0,5020,-0.15267939,1
0,5021,-0.26651818,1
0,5022,-0.19302679,1
0,5023,-0.23096121,1
0,5024,-0.14190882,1
0,5025,-0.15456918,1
0,5026,-0.19960813,1
0,5027,-0.12605449,1
0,5028,-0.093395315,1
0,5029,0.20115343,1
0,5030,0.80744803,1
0,5031,1.4676772,1
0,5032,1.6309924,1
0,5033,2.0712313,1
0,5034,2.4693983,1
0,5035,2.146971,1
0,5036,1.2838119,1
0,5037,0.6776252,1
0,5038,1.0289664,1
0,5039,0.35073325,1
0,5040,-0.83354058,1
0,5041,-1.4633151,1
0,5042,-2.2679727,1
0,5043,-2.8930469,1
0,5044,-3.4220443,1
0,5045,-3.9661888,1
0,5046,-3.381966,1
0,5047,-2.0106879,1
0,5048,-1.6993306,1
0,5049,-1.4943844,1
0,5050,-0.58348293,1
0,5051,-0.3743628,1
0,5052,-0.50368378,1
0,5053,-0.62127772,1
0,5054,-0.072646625,1
0,5055,0.046094619,1
0,5056,-0.52563696,1
0,5057,-0.69091485,1
0,5058,-0.65256625,1
0,5059,-0.46965778,1
0,5060,-0.34262635,1
0,5061,-0.37346761,1
0,5062,-0.45920071,1
0,5063,-0.76808763,1
0,5064,-0.65399231,1
0,5065,-0.62105978,1
0,5066,-0.68486953,1
0,5067,-0.48202934,1
0,5068,-0.46540218,1
0,5069,-0.59963525,1
0,5070,-0.38478878,1
0,5071,-0.25096952,1
0,5072,-0.33978651,1
0,5073,-0.52715248,1
0,5074,-0.81115784,1
0,5075,-0.29373431,1
0,5076,-0.072122581,1
0,5077,-0.33570089,1
0,5078,-0.51176596,1
0,5079,-0.46750944,1
0,5080,-0.029016733,1
0,5081,-0.36813391,1
0,5082,-0.53274146,1
0,5083,-0.48476262,1
0,5084,-0.32525817,1
0,5085,-0.34540493,1
0,5086,-0.38626449,1
0,5087,-0.03791348,1
0,5088,-0.11792468,1
0,5089,-0.31665838,1
0,5090,-0.34177542,1
0,5091,-0.050585712,1
0,5092,0.090646994,1
0,5093,-0.021408437,1
0,5094,0.045424437,1
0,5095,-0.4006518,1
0,5096,-0.53662537,1
0,5097,-0.22963693,1
0,5098,-0.26915502,1
0,5099,-0.17794996,1
0,5100,-0.11472405,1
0,5101,-0.14679337,1
0,5102,-0.18661282,1
0,5103,-0.19648172,1
0,5104,-0.12574968,1
0,5105,-0.03582161,1
0,5106,0.10879457,1
0,5107,0.013489632,1
0,5108,-0.0065900179,1
0,5109,0.066912545,1
0,5110,0.20112873,1
0,5111,0.33890247,1
0,5112,0.33957814,1
0,5113,0.22046921,1
0,5114,0.26164641,1
0,5115,0.31003811,1
0,5116,0.45576245,1
0,5117,0.36034813,1
0,5118,0.52577722,1
0,5119,0.53704402,1
0,5120,0.51552617,1
0,5121,0.44671591,1
0,5122,0.46038645,1
0,5123,0.36591022,1
0,5124,0.3596137,1
0,5125,0.49323751,1
0,5126,0.46610206,1
0,5127,0.44852941,1
0,5128,0.46070048,1
0,5129,0.47452859,1
0,5130,0.39577957,1
0,5131,0.4511212,1
0,5132,0.45585988,1
0,5133,0.39293569,1
0,5134,0.35047972,1
0,5135,0.45890525,1
0,5136,0.40050876,1
0,5137,0.46103572,1
0,5138,0.61840674,1
0,5139,0.84584295,1
0,5140,0.81393201,1
0,5141,1.1035641,1
0,5142,1.4204946,1
0,5143,1.5633771,1
0,5144,1.9818238,1
0,5145,2.1580291,1
0,5146,2.2622342,1
0,5147,2.2697721,1
0,5148,2.1454828,1
0,5149,1.7636766,1
0,5150,1.6027409,1
0,5151,1.3190525,1
0,5152,1.0151368,1
0,5153,0.64955902,1
0,5154,0.3575324,1
0,5155,0.21170762,1
0,5156,0.12964191,1
0,5157,0.15773882,1
0,5158,0.21416123,1
0,5159,0.16283604,1
0,5160,0.31052072,1
0,5161,0.5073217,1
0,5162,0.51418476,1
0,5163,0.5550968,1
0,5164,0.53032927,1
0,5165,0.58729527,1
0,5166,0.48679646,1
0,5167,0.46220497,1
0,5168,0.53688887,1
0,5169,0.61901485,1
0,5170,0.9759085,1
0,5171,1.8066892,1
0,5172,2.0838682,1
0,5173,1.4036605,1
0,5174,0.50692178,1
0,5175,-0.62905308,1
0,5176,-1.3482969,1
0,5177,-1.5711592,1
0,5178,-1.3197323,1
0,5179,-0.40873099,1
0,5180,-0.869182,1
0,5181,-2.2065865,1
0,5182,-2.9895709,1
0,5183,-3.5100354,1
0,5184,-3.2893642,1
0,5185,-3.0073148,1
0,5186,-2.2406109,1
0,5187,-1.7115846,1
0,5188,-1.80555,1
0,5189,-1.4183316,1
0,5190,-0.90173395,1
0,5191,-0.76825269,1
0,5192,-0.87575673,1
0,5193,-0.94860332,1
0,5194,-0.77489531,1
0,5195,-0.82088242,1
0,5196,-0.96868294,1
0,5197,-0.83526283,1
0,5198,-0.86383518,1
0,5199,-0.87544557,1
0,5200,-0.79902868,1
0,5201,-0.80644803,1
0,5202,-0.81050205,1
0,5203,-0.83383589,1
0,5204,-0.75704835,1
0,5205,-0.73629747,1
0,5206,-0.80626221,1
0,5207,-0.88313281,1
0,5208,-0.91346623,1
0,5209,-0.77745338,1
0,5210,-0.85249514,1
0,5211,-0.94051653,1
0,5212,-0.93280471,1
0,5213,-0.88050631,1
0,5214,-0.77325364,1
0,5215,-0.95864382,1
0,5216,-0.91953766,1
0,5217,-0.79980003,1
0,5218,-0.8343904,1
0,5219,-0.85471294,1
0,5220,-0.85583099,1
0,5221,-0.67216428,1
0,5222,-0.66109227,1
0,5223,-0.50697806,1
0,5224,-0.35539539,1
0,5225,-0.42177061,1
0,5226,-0.53625163,1
0,5227,-0.32596317,1
0,5228,-0.31717007,1
0,5229,-0.37730566,1
0,5230,-0.32989117,1
0,5231,-0.1764936,1
0,5232,-0.1957094,1
0,5233,-0.1604057,1
0,5234,-0.14924584,1
0,5235,-0.12409144,1
0,5236,-0.028446905,1
0,5237,0.026180075,1
0,5238,-0.15007249,1
0,5239,-0.15393779,1
0,5240,-0.14604047,1
0,5241,-0.021657463,1
0,5242,-0.014306005,1
0,5243,0.039257439,1
0,5244,0.20493539,1
0,5245,0.11602464,1
0,5246,0.084304107,1
0,5247,0.11123894,1
0,5248,0.21272998,1
0,5249,0.26163798,1
0,5250,0.13536919,1
0,5251,0.30074526,1
0,5252,0.45143944,1
0,5253,0.40357213,1
0,5254,0.48383784,1
0,5255,0.51391024,1
0,5256,0.56863865,1
0,5257,0.53702278,1
0,5258,0.41885194,1
0,5259,0.37096142,1
0,5260,0.37716016,1
0,5261,0.47553953,1
0,5262,0.49642491,1
0,5263,0.4727351,1
0,5264,0.44678285,1
0,5265,0.46839683,1
0,5266,0.50782288,1
0,5267,0.53981375,1
0,5268,0.45266186,1
0,5269,0.53897268,1
0,5270,0.39855023,1
0,5271,0.46245577,1
0,5272,0.51686294,1
0,5273,0.46859871,1
0,5274,0.55577636,1
0,5275,0.62973144,1
0,5276,0.77314843,1
0,5277,0.88806691,1
0,5278,0.80317658,1
0,5279,0.76936946,1
0,5280,1.0906305,1
0,5281,1.1969699,1
0,5282,1.3296435,1
0,5283,1.5050152,1
0,5284,1.5628844,1
0,5285,1.5760815,1
0,5286,1.4032697,1
0,5287,1.2858207,1
0,5288,1.1047245,1
0,5289,1.121968,1
0,5290,0.95280533,1
0,5291,0.78320928,1
0,5292,0.609461,1
0,5293,0.34251807,1
0,5294,0.40503538,1
0,5295,0.45644674,1
0,5296,0.50191352,1
0,5297,0.52328074,1
0,5298,0.43453203,1
0,5299,0.43572867,1
0,5300,0.58881715,1
0,5301,0.55893894,1
0,5302,0.36612367,1
0,5303,0.41786921,1
0,5304,0.62788765,1
0,5305,0.68541861,1
0,5306,0.59936648,1
0,5307,0.61441463,1
0,5308,0.7286199,1
0,5309,0.87216645,1
0,5310,1.1669045,1
0,5311,1.2969144,1
0,5312,1.2885578,1
0,5313,1.5334311,1
0,5314,1.5094861,1
0,5315,1.3902125,1
0,5316,1.3655023,1
0,5317,1.3225038,1
0,5318,1.8521256,1
0,5319,1.5419344,1
0,5320,0.1940386,1
0,5321,-2.6269766,1
0,5322,-4.0946853,1
0,5323,-4.530522,1
0,5324,-4.1227825,1
0,5325,-3.0820611,1
0,5326,-1.9064297,1
0,5327,-1.6267002,1
0,5328,-0.98881683,1
0,5329,-0.2625284,1
0,5330,-0.35485818,1
0,5331,-0.24360805,1
0,5332,-0.21174603,1
0,5333,-0.26478906,1
0,5334,-0.23264451,1
0,5335,-0.24389732,1
0,5336,-0.30767997,1
0,5337,-0.28962471,1
0,5338,-0.26859114,1
0,5339,-0.27667459,1
0,5340,-0.37508493,1
0,5341,-0.35752287,1
0,5342,-0.486995,1
0,5343,-0.55767708,1
0,5344,-0.4431726,1
0,5345,-0.54293508,1
0,5346,-0.59243604,1
0,5347,-0.6002907,1
0,5348,-0.62743828,1
0,5349,-0.74285958,1
0,5350,-0.66799109,1
0,5351,-0.85394338,1
0,5352,-0.81640358,1
0,5353,-0.92950293,1
0,5354,-0.92976653,1
0,5355,-0.93841109,1
0,5356,-0.93204217,1
0,5357,-0.94117377,1
0,5358,-0.94518245,1
0,5359,-0.87573421,1
0,5360,-0.7454381,1
0,5361,-0.72659819,1
0,5362,-0.6679336,1
0,5363,-0.39140323,1
0,5364,-0.35894004,1
0,5365,-0.36369057,1
0,5366,-0.24877757,1
0,5367,-0.24437095,1
0,5368,-0.17974104,1
0,5369,-0.13775457,1
0,5370,0.024926969,1
0,5371,-0.019682223,1
0,5372,0.065831627,1
0,5373,0.13226511,1
0,5374,0.1092153,1
0,5375,0.12517479,1
0,5376,0.27656715,1
0,5377,0.21831138,1
0,5378,0.21519164,1
0,5379,0.27155052,1
0,5380,0.32662434,1
0,5381,0.25356447,1
0,5382,0.28211582,1
0,5383,0.49307158,1
0,5384,0.38812612,1
0,5385,0.42776252,1
0,5386,0.5217755,1
0,5387,0.5896693,1
0,5388,0.61685294,1
0,5389,0.6829981,1
0,5390,0.70978146,1
0,5391,0.74074667,1
0,5392,0.64651648,1
0,5393,0.69844508,1
0,5394,0.63012831,1
0,5395,0.76637419,1
0,5396,0.7284455,1
0,5397,0.66134137,1
0,5398,0.70455108,1
0,5399,0.52651392,1
0,5400,0.63808952,1
0,5401,0.64315976,1
0,5402,0.49377402,1
0,5403,0.55167319,1
0,5404,0.46524968,1
0,5405,0.55870597,1
0,5406,0.44034169,1
0,5407,0.38693191,1
0,5408,0.38340207,1
0,5409,0.41095372,1
0,5410,0.38577956,1
0,5411,0.37742051,1
0,5412,0.40261455,1
0,5413,0.3264872,1
0,5414,0.3616945,1
0,5415,0.36688041,1
0,5416,0.37402358,1
0,5417,0.44819118,1
0,5418,0.59137108,1
0,5419,0.88779852,1
0,5420,1.2309699,1
0,5421,1.3120343,1
0,5422,1.4284373,1
0,5423,1.5764141,1
0,5424,1.7901007,1
0,5425,1.6576839,1
0,5426,1.6500184,1
0,5427,1.6249761,1
0,5428,1.3313129,1
0,5429,1.2139498,1
0,5430,0.961732,1
0,5431,0.67800119,1
0,5432,0.31326698,1
0,5433,-0.063885789,1
0,5434,-0.19038678,1
0,5435,-0.27232209,1
0,5436,-0.23693128,1
0,5437,-0.22902931,1
0,5438,-0.24000958,1
0,5439,-0.33611395,1
0,5440,-0.2104699,1
0,5441,-0.18256512,1
0,5442,-0.11599984,1
0,5443,-0.17489923,1
0,5444,-0.17892008,1
0,5445,-0.10488017,1
0,5446,-0.090408797,1
0,5447,-0.12083461,1
0,5448,-0.051125987,1
0,5449,0.14008398,1
0,5450,0.84172399,1
0,5451,1.270668,1
0,5452,1.1135843,1
0,5453,1.1221841,1
0,5454,0.88618453,1
0,5455,0.72436759,1
0,5456,0.70664178,1
0,5457,0.86761242,1
0,5458,1.2951468,1
0,5459,-1.2848233,1
0,5460,1.381994,1
0,5461,0.36621607,1
0,5462,-2.4019983,1
0,5463,-4.2293972,1
0,5464,-4.9372699,1
0,5465,-5.0561839,1
0,5466,-3.8526331,1
0,5467,-2.1658699,1
0,5468,-1.9756248,1
0,5469,-1.1081356,1
0,5470,-0.11463923,1
0,5471,-0.19791556,1
0,5472,-0.24602237,1
0,5473,-0.10414129,1
0,5474,-0.046410796,1
0,5475,-0.067892614,1
0,5476,0.23488257,1
0,5477,0.32179348,1
0,5478,0.27563529,1
0,5479,0.21115321,1
0,5480,0.25558825,1
0,5481,0.2259627,1
0,5482,0.3342047,1
0,5483,0.26990682,1
0,5484,0.34460541,1
0,5485,0.28124644,1
0,5486,0.55479254,1
0,5487,0.4999322,1
0,5488,0.32474916,1
0,5489,0.19225441,1
0,5490,0.2747678,1
0,5491,0.16306141,1
0,5492,0.076353115,1
0,5493,0.12241184,1
0,5494,-0.141462,1
0,5495,-0.21037408,1
0,5496,-0.014104558,1
0,5497,0.061627422,1
0,5498,-0.11164908,1
0,5499,-0.072694063,1
0,5500,-0.055701079,1
0,5501,0.066338636,1
0,5502,0.065868034,1
0,5503,0.057605889,1
0,5504,0.23233759,1
0,5505,0.26457152,1
0,5506,0.46664347,1
0,5507,0.52532594,1
0,5508,0.63407284,1
0,5509,0.4331724,1
0,5510,0.39840851,1
0,5511,0.5008044,1
0,5512,0.55525392,1
0,5513,0.69831644,1
0,5514,0.57229014,1
0,5515,0.52401516,1
0,5516,0.64888858,1
0,5517,0.5974668,1
0,5518,0.56286817,1
0,5519,0.5846362,1
0,5520,0.54415541,1
0,5521,0.49085373,1
0,5522,0.57391471,1
0,5523,0.5151486,1
0,5524,0.48788316,1
0,5525,0.59762703,1
0,5526,0.6404152,1
0,5527,0.75357241,1
0,5528,0.65541997,1
0,5529,0.65509987,1
0,5530,0.74535054,1
0,5531,0.74074953,1
0,5532,0.6582024,1
0,5533,0.7374126,1
0,5534,0.59984443,1
0,5535,0.65270407,1
0,5536,0.73390524,1
0,5537,0.61080117,1
0,5538,0.57532655,1
0,5539,0.65332316,1
0,5540,0.6480747,1
0,5541,0.45093375,1
0,5542,0.48712753,1
0,5543,0.37887817,1
0,5544,0.41127997,1
0,5545,0.40842992,1
0,5546,0.22206699,1
0,5547,0.1649612,1
0,5548,0.13895889,1
0,5549,0.22080683,1
0,5550,0.13376541,1
0,5551,0.1309494,1
0,5552,0.061104875,1
0,5553,0.027411738,1
0,5554,0.0013073412,1
0,5555,0.075516316,1
0,5556,-0.014458395,1
0,5557,0.025507035,1
0,5558,0.042833967,1
0,5559,0.13440725,1
0,5560,0.041720512,1
0,5561,-0.052771846,1
0,5562,-0.053965983,1
0,5563,0.11094172,1
0,5564,0.26175074,1
0,5565,0.39416452,1
0,5566,0.52321069,1
0,5567,0.84624645,1
0,5568,1.014927,1
0,5569,0.88103388,1
0,5570,0.62336098,1
0,5571,0.34329358,1
0,5572,0.12654862,1
0,5573,0.031103658,1
0,5574,0.12691427,1
0,5575,-0.023384617,1
0,5576,-0.37095866,1
0,5577,-0.71593091,1
0,5578,-0.87829665,1
0,5579,-0.88372397,1
0,5580,-1.0540557,1
0,5581,-1.0780056,1
0,5582,-1.0702878,1
0,5583,-1.0086882,1
0,5584,-1.1277357,1
0,5585,-1.0584954,1
0,5586,-0.89273247,1
0,5587,-0.83903891,1
0,5588,-0.90436231,1
0,5589,-1.308129,1
0,5590,-1.1405188,1
0,5591,-0.54974974,1
0,5592,0.28551732,1
0,5593,0.60328977,1
0,5594,0.9435067,1
0,5595,1.1229611,1
0,5596,1.2020018,1
0,5597,0.62389127,1
0,5598,-0.15810707,1
0,5599,0.23907783,1
0,5600,0.8601815,1
0,5601,-0.1418624,1
0,5602,-1.9673779,1
0,5603,-2.9888945,1
0,5604,-3.8054927,1
0,5605,-3.5349361,1
0,5606,-2.5727398,1
0,5607,-1.9410837,1
0,5608,-1.5679289,1
0,5609,-0.6666069,1
0,5610,-0.39057052,1
0,5611,-0.44048619,1
0,5612,-0.34772724,1
0,5613,-0.33634353,1
0,5614,-0.35092696,1
0,5615,-0.41944037,1
0,5616,-0.42538555,1
0,5617,-0.3984287,1
0,5618,-0.44930303,1
0,5619,-0.49409829,1
0,5620,-0.46315078,1
0,5621,-0.53909561,1
0,5622,-0.66490158,1
0,5623,-0.66983643,1
0,5624,-0.59577177,1
0,5625,-0.70255449,1
0,5626,-0.84050179,1
0,5627,-0.85796611,1
0,5628,-0.94829584,1
0,5629,-0.87069314,1
0,5630,-1.0515735,1
0,5631,-1.1141012,1
0,5632,-1.0693649,1
0,5633,-1.2264251,1
0,5634,-1.1925338,1
0,5635,-1.2103399,1
0,5636,-1.3302845,1
0,5637,-1.2821574,1
0,5638,-1.2894278,1
0,5639,-1.1037867,1
0,5640,-1.0540334,1
0,5641,-1.0017427,1
0,5642,-1.0318155,1
0,5643,-0.86151372,1
0,5644,-0.70442083,1
0,5645,-0.67167205,1
0,5646,-0.52076259,1
0,5647,-0.4786686,1
0,5648,-0.4298769,1
0,5649,-0.27926442,1
0,5650,-0.26086462,1
0,5651,-0.33511736,1
0,5652,-0.1686186,1
0,5653,-0.20816881,1
0,5654,-0.19304768,1
0,5655,-0.18248668,1
0,5656,-0.13485653,1
0,5657,-0.067825746,1
0,5658,-0.028167989,1
0,5659,0.041396328,1
0,5660,0.046458175,1
0,5661,0.094236883,1
0,5662,0.090328862,1
0,5663,0.22296357,1
0,5664,0.37001506,1
0,5665,0.43797713,1
0,5666,0.3932308,1
0,5667,0.34172463,1
0,5668,0.45222241,1
0,5669,0.50342936,1
0,5670,0.52959964,1
0,5671,0.57640402,1
0,5672,0.63839914,1
0,5673,0.65897446,1
0,5674,0.51787544,1
0,5675,0.55623293,1
0,5676,0.51095482,1
0,5677,0.59077971,1
0,5678,0.55924163,1
0,5679,0.54986821,1
0,5680,0.4812327,1
0,5681,0.47062567,1
0,5682,0.44019704,1
0,5683,0.3897952,1
0,5684,0.36795257,1
0,5685,0.37277516,1
0,5686,0.3310922,1
0,5687,0.38640313,1
0,5688,0.34362028,1
0,5689,0.30251866,1
0,5690,0.42750609,1
0,5691,0.33790794,1
0,5692,0.39377182,1
0,5693,0.31425529,1
0,5694,0.4630185,1
0,5695,0.35810994,1
0,5696,0.30632635,1
0,5697,0.42741326,1
0,5698,0.36588975,1
0,5699,0.45020852,1
0,5700,0.47055251,1
0,5701,0.55274383,1
0,5702,0.92625158,1
0,5703,1.1423205,1
0,5704,1.2735146,1
0,5705,1.4464056,1
0,5706,1.5736994,1
0,5707,1.9466014,1
0,5708,2.2666614,1
0,5709,2.1760928,1
0,5710,2.0371013,1
0,5711,1.8584269,1
0,5712,1.7444298,1
0,5713,1.5470201,1
0,5714,1.2637535,1
0,5715,0.74392715,1
0,5716,0.19274446,1
0,5717,-0.0051230624,1
0,5718,-0.0045447824,1
0,5719,-0.0044780955,1
0,5720,-0.13646034,1
0,5721,0.041174638,1
0,5722,-0.011509561,1
0,5723,0.056577011,1
0,5724,0.046860696,1
0,5725,0.04455934,1
0,5726,0.08130467,1
0,5727,0.015736356,1
0,5728,0.11642984,1
0,5729,0.12444127,1
0,5730,0.1741764,1
0,5731,0.38120375,1
0,5732,1.014294,1
0,5733,1.5735464,1
0,5734,1.26404,1
0,5735,1.4922338,1
0,5736,1.6145787,1
0,5737,1.3942715,1
0,5738,0.59271243,1
0,5739,0.57393333,1
0,5740,-0.50162131,1
0,5741,-1.0885841,1
0,5742,-1.9397493,1
0,5743,-3.8884577,1
0,5744,-3.9511298,1
0,5745,-3.7056505,1
0,5746,-2.8737203,1
0,5747,-1.9517084,1
0,5748,-1.150802,1
0,5749,-0.88886891,1
0,5750,-0.4511115,1
0,5751,-0.12966496,1
0,5752,-0.062786364,1
0,5753,-0.15013052,1
0,5754,-0.30613358,1
0,5755,-0.60497228,1
0,5756,-0.78008477,1
0,5757,-0.68535122,1
0,5758,-0.64817681,1
0,5759,-0.64254805,1
0,5760,-0.56671865,1
0,5761,-0.4993034,1
0,5762,-0.45560725,1
0,5763,-0.49735603,1
0,5764,-0.4784027,1
0,5765,-0.43096976,1
0,5766,-0.34893201,1
0,5767,-0.38120151,1
0,5768,-0.34435793,1
0,5769,-0.28939968,1
0,5770,-0.35077581,1
0,5771,-0.34159018,1
0,5772,-0.35891507,1
0,5773,-0.35520397,1
0,5774,-0.425725,1
0,5775,-0.39905546,1
0,5776,-0.45446879,1
0,5777,-0.43383121,1
0,5778,-0.49751684,1
0,5779,-0.59484332,1
0,5780,-0.60672001,1
0,5781,-0.61033218,1
0,5782,-0.59790306,1
0,5783,-0.591794,1
0,5784,-0.5578858,1
0,5785,-0.52713078,1
0,5786,-0.54754834,1
0,5787,-0.47495141,1
0,5788,-0.41804966,1
0,5789,-0.37977675,1
0,5790,-0.33453388,1
0,5791,-0.30220087,1
0,5792,-0.29337014,1
0,5793,-0.33207313,1
0,5794,-0.27696819,1
0,5795,-0.26287147,1
0,5796,-0.25468554,1
0,5797,-0.278847,1
0,5798,-0.24986102,1
0,5799,-0.32466922,1
0,5800,-0.30076046,1
0,5801,-0.37536839,1
0,5802,-0.28638718,1
0,5803,-0.30998513,1
0,5804,-0.32541378,1
0,5805,-0.29184997,1
0,5806,-0.26465758,1
0,5807,-0.2709228,1
0,5808,-0.23601605,1
0,5809,-0.22861508,1
0,5810,-0.2254585,1
0,5811,-0.20612425,1
0,5812,-0.22388702,1
0,5813,-0.21851504,1
0,5814,-0.14480835,1
0,5815,-0.11981557,1
0,5816,-0.14737146,1
0,5817,-0.03794437,1
0,5818,-0.085062979,1
0,5819,-0.046366626,1
0,5820,-0.033447392,1
0,5821,-0.0048851905,1
0,5822,0.014000756,1
0,5823,0.026848102,1
0,5824,0.053281903,1
0,5825,0.062308393,1
0,5826,0.072059595,1
0,5827,0.10268872,1
0,5828,0.1307667,1
0,5829,0.14254294,1
0,5830,0.21226921,1
0,5831,0.23912392,1
0,5832,0.2407724,1
0,5833,0.25707283,1
0,5834,0.30228775,1
0,5835,0.29489505,1
0,5836,0.23629385,1
0,5837,0.31484162,1
0,5838,0.39681995,1
0,5839,0.40840375,1
0,5840,0.4633555,1
0,5841,0.45886471,1
0,5842,0.52610784,1
0,5843,0.54410442,1
0,5844,0.53603264,1
0,5845,0.5562474,1
0,5846,0.6370206,1
0,5847,0.67599322,1
0,5848,0.76511945,1
0,5849,0.9740357,1
0,5850,1.1480812,1
0,5851,1.3256004,1
0,5852,1.5865326,1
0,5853,1.7036074,1
0,5854,1.7635084,1
0,5855,1.7330211,1
0,5856,1.5713397,1
0,5857,1.4124095,1
0,5858,1.2507314,1
0,5859,0.99159144,1
0,5860,0.64598334,1
0,5861,0.5496972,1
0,5862,0.54583024,1
0,5863,0.62844716,1
0,5864,0.65994471,1
0,5865,0.64974171,1
0,5866,0.63196901,1
0,5867,0.67307441,1
0,5868,0.65684723,1
0,5869,0.70476365,1
0,5870,0.7768457,1
0,5871,0.82811562,1
0,5872,1.1967957,1
0,5873,1.4450747,1
0,5874,1.505033,1
0,5875,1.7656167,1
0,5876,2.0334675,1
0,5877,2.0392521,1
0,5878,2.5894742,1
0,5879,2.854707,1
0,5880,-0.53334196,1
0,5881,-1.8556681,1
0,5882,-2.2140382,1
0,5883,-3.1334115,1
0,5884,-3.4171372,1
0,5885,-3.0604469,1
0,5886,-2.2562981,1
0,5887,-1.7656979,1
0,5888,-1.6222889,1
0,5889,-1.1547278,1
0,5890,-0.86777128,1
0,5891,-0.90647173,1
0,5892,-0.87130542,1
0,5893,-0.87435826,1
0,5894,-0.88158744,1
0,5895,-0.9031436,1
0,5896,-0.86607165,1
0,5897,-0.86865471,1
0,5898,-0.84634872,1
0,5899,-0.84449092,1
0,5900,-0.85347664,1
0,5901,-0.86195995,1
0,5902,-0.80943786,1
0,5903,-0.84169649,1
0,5904,-0.87337192,1
0,5905,-0.88915814,1
0,5906,-0.90897358,1
0,5907,-0.86972108,1
0,5908,-0.88412267,1
0,5909,-0.90523014,1
0,5910,-0.93980093,1
0,5911,-0.95116533,1
0,5912,-0.96750259,1
0,5913,-0.99250209,1
0,5914,-1.00055,1
0,5915,-0.95494752,1
0,5916,-0.94863479,1
0,5917,-0.90411414,1
0,5918,-0.89658748,1
0,5919,-0.81267242,1
0,5920,-0.78924399,1
0,5921,-0.71010155,1
0,5922,-0.66955258,1
0,5923,-0.61376458,1
0,5924,-0.59935909,1
0,5925,-0.51718842,1
0,5926,-0.45020178,1
0,5927,-0.39521824,1
0,5928,-0.3804468,1
0,5929,-0.39336749,1
0,5930,-0.35022284,1
0,5931,-0.3496819,1
0,5932,-0.30588408,1
0,5933,-0.28722073,1
0,5934,-0.25920436,1
0,5935,-0.28317265,1
0,5936,-0.26636688,1
0,5937,-0.26271382,1
0,5938,-0.16842277,1
0,5939,-0.19469278,1
0,5940,-0.12977245,1
0,5941,-0.12958657,1
0,5942,-0.10498221,1
0,5943,-0.064817854,1
0,5944,-0.053427639,1
0,5945,-0.013164421,1
0,5946,0.050629092,1
0,5947,0.077997132,1
0,5948,0.12776021,1
0,5949,0.16521717,1
0,5950,0.19037757,1
0,5951,0.22530202,1
0,5952,0.24942965,1
0,5953,0.31732883,1
0,5954,0.37778205,1
0,5955,0.38997654,1
0,5956,0.39844172,1
0,5957,0.41033347,1
0,5958,0.41015456,1
0,5959,0.43594136,1
0,5960,0.38914246,1
0,5961,0.42578306,1
0,5962,0.40887891,1
0,5963,0.43909803,1
0,5964,0.41708778,1
0,5965,0.4451613,1
0,5966,0.384284,1
0,5967,0.45751283,1
0,5968,0.4544231,1
0,5969,0.45197146,1
0,5970,0.45223411,1
0,5971,0.47006201,1
0,5972,0.44817616,1
0,5973,0.49418289,1
0,5974,0.50964656,1
0,5975,0.5176745,1
