series_id,timestep,dim_0,label
0,0,0.50205548,-1
0,1,0.54216265,-1
0,2,0.72238348,-1
0,3,1.4288852,-1
0,4,2.1365158,-1
0,5,2.281149,-1
0,6,1.9362737,-1
0,7,1.46889,-1
0,8,1.0088451,-1
0,9,0.38028224,-1
0,10,-0.29677967,-1
0,11,-0.51392868,-1
0,12,-0.25564469,-1
0,13,-0.10720254,-1
0,14,-0.28782655,-1
0,15,-0.41800901,-1
0,16,-0.31916313,-1
0,17,-0.2603787,-1
0,18,-0.35035721,-1
0,19,-0.50548599,-1
0,20,-0.71088709,-1
0,21,-0.82391982,-1
0,22,-0.89970154,-1
0,23,-1.1539497,-1
0,24,-1.2298306,-1
0,25,-1.044091,-1
0,26,-1.2020312,-1
0,27,-1.3921949,-1
0,28,-1.1301083,-1
0,29,-1.1798666,-1
0,30,-1.6492718,-1
0,31,-1.7265754,-1
0,32,-1.6083704,-1
0,33,-1.6628022,-1
0,34,-1.6506724,-1
0,35,-1.6973094,-1
0,36,-1.8386968,-1
0,37,-1.8025962,-1
0,38,-1.7805361,-1
0,39,-1.8251665,-1
0,40,-1.6447633,-1
0,41,-1.4238097,-1
0,42,-1.3921949,-1
0,43,-1.3604156,-1
0,44,-1.2001781,-1
0,45,-0.91863234,-1
0,46,-0.68591581,-1
0,47,-0.66794346,-1
0,48,-0.51272154,-1
0,49,-0.10169069,-1
0,50,0.063954259,-1
0,51,0.082614311,-1
0,52,0.23760718,-1
0,53,0.17479318,-1
0,54,0.12320539,-1
0,55,0.5033942,-1
0,56,0.6838702,-1
0,57,0.47499476,-1
0,58,0.53279711,-1
0,59,0.72354995,-1
0,60,0.6644198,-1
0,61,0.64793559,-1
0,62,0.75705403,-1
0,63,0.7320716,-1
0,64,0.62021499,-1
0,65,0.60629677,-1
0,66,0.67795016,-1
0,67,0.68908363,-1
0,68,0.59880728,-1
0,69,0.54264656,-1
0,70,0.58180737,-1
0,71,0.63063068,-1
0,72,0.6644198,-1
0,73,0.6863178,-1
0,74,0.65738251,-1
0,75,0.65088944,-1
0,76,0.72173837,-1
0,77,0.73970645,-1
0,78,0.69148052,-1
0,79,0.69522947,-1
0,80,0.7501145,-1
0,81,0.85384485,-1
0,82,0.91601888,-1
0,83,0.82774969,-1
0,84,0.88090557,-1
0,85,1.0888307,-1
0,86,0.93104294,-1
0,87,0.61029836,-1
0,88,0.63889427,-1
0,89,0.68467857,-1
0,90,0.58323764,-1
0,91,0.64052167,-1
0,92,0.70858515,-1
0,93,0.70501088,-1
0,94,0.71381545,-1
0,95,0.43376464,-1
0,96,0.1476469,1
0,97,0.8046684,1
0,98,0.36777149,1
0,99,0.24389371,1
0,100,0.026613882,1
0,101,-0.27440211,1
0,102,0.096730583,1
0,103,-0.74773064,1
0,104,-1.6097771,1
0,105,-1.1795931,1
0,106,-1.0559264,1
0,107,-1.1287774,1
0,108,-0.68603867,1
0,109,-0.79878866,1
0,110,-1.7142791,1
0,111,-1.6498584,1
0,112,-1.0326988,1
0,113,-1.4239179,1
0,114,-1.7824333,1
0,115,-1.0251257,1
0,116,-1.7989086,1
0,117,-1.7936136,1
0,118,-1.0854783,1
0,119,-1.5743899,1
0,120,-1.0360595,1
0,121,-2.130021,1
0,122,-2.0386213,1
0,123,-0.05501273,1
0,124,-1.1401949,1
0,125,-0.70427521,1
0,126,0.048723084,1
0,127,-0.47585411,1
0,128,0.52586518,1
0,129,0.24477767,1
0,130,0.67993176,1
0,131,0.9286012,1
0,132,0.57304095,1
0,133,1.2316066,1
0,134,1.0433243,1
0,135,1.5802281,1
0,136,1.2905714,1
0,137,0.75051788,1
0,138,0.97756667,1
0,139,1.1415881,1
0,140,1.5299044,1
0,141,0.84768163,1
0,142,0.7667604,1
0,143,0.56568218,1
0,144,1.0846257,1
0,145,1.0573685,1
0,146,0.50308411,1
0,147,0.95328821,1
0,148,0.45419824,1
0,149,1.1989698,1
0,150,0.84971989,1
0,151,-0.13771474,1
0,152,0.63112045,1
0,153,0.69407501,1
0,154,0.51507095,1
0,155,0.5592294,1
0,156,0.555712,1
0,157,0.46969403,1
0,158,0.38882121,1
0,159,0.34312937,1
0,160,0.53559788,1
0,161,0.90070837,1
0,162,0.65684587,1
0,163,0.69003294,1
0,164,0.9525963,1
0,165,0.54776991,1
0,166,-0.16769268,1
0,167,0.011531941,1
0,168,-0.17648785,1
0,169,-0.27770647,1
0,170,-0.22483592,1
0,171,-0.91072293,1
0,172,-0.037931787,1
0,173,0.071667671,1
0,174,-1.0489198,1
0,175,-0.63621758,1
0,176,-0.38663674,1
0,177,-0.50751228,1
0,178,-0.7166559,1
0,179,-0.46375771,1
0,180,-0.46044227,1
0,181,-0.77079245,1
0,182,-0.53350348,1
0,183,-0.4002281,1
0,184,0.17608413,1
0,185,1.111768,1
0,186,2.4384282,1
0,187,2.7348886,1
0,188,1.7360544,1
0,189,0.036856551,1
0,190,-1.2650744,1
0,191,-0.20802439,1
0,192,0.31664616,-1
0,193,0.24319908,-1
0,194,0.37047144,-1
0,195,1.0637381,-1
0,196,1.6781871,-1
0,197,1.7595575,-1
0,198,1.6977172,-1
0,199,1.612159,-1
0,200,1.1681877,-1
0,201,0.49995704,-1
0,202,-0.022362533,-1
0,203,-0.23531816,-1
0,204,-0.11827251,-1
0,205,-0.071027356,-1
0,206,-0.32298644,-1
0,207,-0.43356208,-1
0,208,-0.31865971,-1
0,209,-0.29565486,-1
0,210,-0.41773284,-1
0,211,-0.68247969,-1
0,212,-0.88183977,-1
0,213,-0.84332048,-1
0,214,-0.88365177,-1
0,215,-1.0300185,-1
0,216,-1.0552655,-1
0,217,-1.1686368,-1
0,218,-1.3639905,-1
0,219,-1.3376111,-1
0,220,-1.2612936,-1
0,221,-1.4097822,-1
0,222,-1.6345041,-1
0,223,-1.7032377,-1
0,224,-1.6770249,-1
0,225,-1.7826278,-1
0,226,-1.9968716,-1
0,227,-2.0563716,-1
0,228,-1.9378809,-1
0,229,-1.8794116,-1
0,230,-1.9154266,-1
0,231,-1.8455069,-1
0,232,-1.658135,-1
0,233,-1.5094832,-1
0,234,-1.3934261,-1
0,235,-1.2328683,-1
0,236,-1.0243483,-1
0,237,-0.76864001,-1
0,238,-0.51129373,-1
0,239,-0.30956399,-1
0,240,-0.13196163,-1
0,241,0.035054082,-1
0,242,0.14215881,-1
0,243,0.22580665,-1
0,244,0.34369036,-1
0,245,0.42858907,-1
0,246,0.4695677,-1
0,247,0.56978192,-1
0,248,0.67566632,-1
0,249,0.69988535,-1
0,250,0.73256075,-1
0,251,0.7716652,-1
0,252,0.73812943,-1
0,253,0.7236995,-1
0,254,0.80687593,-1
0,255,0.87898449,-1
0,256,0.85579127,-1
0,257,0.80638433,-1
0,258,0.79250094,-1
0,259,0.80381413,-1
0,260,0.78193839,-1
0,261,0.70043908,-1
0,262,0.73595994,-1
0,263,0.86416166,-1
0,264,0.70766984,-1
0,265,0.45875614,-1
0,266,0.60014556,-1
0,267,0.82513646,-1
0,268,0.80003425,-1
0,269,0.76282112,-1
0,270,0.75544283,-1
0,271,0.65376588,-1
0,272,0.52644092,-1
0,273,0.47733909,-1
0,274,0.57494596,-1
0,275,0.69842456,-1
0,276,0.72241431,-1
0,277,0.77159793,-1
0,278,0.76422904,-1
0,279,0.61062146,-1
0,280,0.55290034,-1
0,281,0.56678608,-1
0,282,0.60400236,-1
0,283,0.77706781,-1
0,284,0.81234542,-1
0,285,0.74884814,-1
0,286,0.81804204,-1
0,287,0.53934704,-1
0,288,1.1688741,-1
0,289,2.0759008,-1
0,290,1.7601405,-1
0,291,1.6064459,-1
0,292,1.9490456,-1
0,293,1.3028421,-1
0,294,0.45933154,-1
0,295,0.51641212,-1
0,296,0.85217953,-1
0,297,0.98922717,-1
0,298,0.82125349,-1
0,299,0.57644764,-1
0,300,0.74308944,-1
0,301,0.8529702,-1
0,302,0.30745835,-1
0,303,-0.13039065,-1
0,304,-0.062199969,-1
0,305,-0.10072696,-1
0,306,-0.23281819,-1
0,307,-0.23446477,-1
0,308,-0.21475573,-1
0,309,-0.23041257,-1
0,310,-0.22755149,-1
0,311,-0.23100238,-1
0,312,-0.46347873,-1
0,313,-0.72421462,-1
0,314,-0.78788488,-1
0,315,-0.98668657,-1
0,316,-1.224672,-1
0,317,-1.2881418,-1
0,318,-1.3641481,-1
0,319,-1.4282213,-1
0,320,-1.5017669,-1
0,321,-1.6480837,-1
0,322,-1.7058362,-1
0,323,-1.6867905,-1
0,324,-1.7057193,-1
0,325,-1.7776833,-1
0,326,-1.8693132,-1
0,327,-1.8583761,-1
0,328,-1.7377167,-1
0,329,-1.7291486,-1
0,330,-1.7281054,-1
0,331,-1.5460373,-1
0,332,-1.4591025,-1
0,333,-1.4107518,-1
0,334,-1.1634273,-1
0,335,-0.90741874,-1
0,336,-0.71621062,-1
0,337,-0.58176337,-1
0,338,-0.44252605,-1
0,339,-0.20704617,-1
0,340,-0.026462658,-1
0,341,0.11703627,-1
0,342,0.22063662,-1
0,343,0.26431516,-1
0,344,0.40505498,-1
0,345,0.46497434,-1
0,346,0.43416264,-1
0,347,0.4868072,-1
0,348,0.43938773,-1
0,349,0.36961087,-1
0,350,0.41314866,-1
0,351,0.3978947,-1
0,352,0.31876371,-1
0,353,0.26371736,-1
0,354,0.28886308,-1
0,355,0.35824403,-1
0,356,0.32673714,-1
0,357,0.22921539,-1
0,358,0.20441776,-1
0,359,0.24438588,-1
0,360,0.26263199,-1
0,361,0.24388475,-1
0,362,0.22750228,-1
0,363,0.24578495,-1
0,364,0.23295916,-1
0,365,0.16461077,-1
0,366,0.17153767,-1
0,367,0.16669037,-1
0,368,0.099141394,-1
0,369,0.14693663,-1
0,370,0.13341444,-1
0,371,0.12529443,-1
0,372,0.20271343,-1
0,373,0.18640913,-1
0,374,0.41900645,-1
0,375,0.72388755,-1
0,376,1.3239469,-1
0,377,2.1364876,-1
0,378,1.7465965,-1
0,379,1.4702205,-1
0,380,1.8935123,-1
0,381,1.2569493,-1
0,382,0.80040658,-1
0,383,0.73153981,-1
0,384,0.64865752,1
0,385,0.75202595,1
0,386,2.6362312,1
0,387,3.4557156,1
0,388,2.1181574,1
0,389,0.52062024,1
0,390,-0.18862656,1
0,391,0.78081841,1
0,392,0.93377469,1
0,393,0.70140202,1
0,394,1.006133,1
0,395,0.39578379,1
0,396,-0.36970304,1
0,397,-0.73820206,1
0,398,-0.72908415,1
0,399,-0.90693968,1
0,400,-0.87096235,1
0,401,-1.060217,1
0,402,-1.1979584,1
0,403,-0.98160194,1
0,404,-1.2724972,1
0,405,-1.2873802,1
0,406,-1.2766979,1
0,407,-1.5397017,1
0,408,-1.3466101,1
0,409,-1.5352169,1
0,410,-1.7634184,1
0,411,-1.6888209,1
0,412,-1.8093685,1
0,413,-1.8638914,1
0,414,-1.9944534,1
0,415,-1.8898102,1
0,416,-1.9257132,1
0,417,-1.8336293,1
0,418,-1.6618298,1
0,419,-1.3425104,1
0,420,-1.0113174,1
0,421,-0.67271665,1
0,422,-0.21615671,1
0,423,0.052871572,1
0,424,0.56208966,1
0,425,0.70087985,1
0,426,0.94692677,1
0,427,1.0049973,1
0,428,1.0275423,1
0,429,1.1916636,1
0,430,0.96885533,1
0,431,0.84461754,1
0,432,0.77949209,1
0,433,0.743938,1
0,434,0.67335291,1
0,435,0.50527636,1
0,436,0.66254685,1
0,437,0.60770289,1
0,438,0.54610457,1
0,439,0.68716257,1
0,440,0.54300417,1
0,441,0.45314766,1
0,442,0.48578457,1
0,443,0.44067902,1
0,444,0.53915332,1
0,445,0.36957146,1
0,446,0.37731573,1
0,447,0.47011338,1
0,448,0.32144799,1
0,449,0.32551344,1
0,450,0.25125875,1
0,451,0.2705711,1
0,452,0.27716131,1
0,453,0.15517117,1
0,454,0.12095431,1
0,455,0.32639509,1
0,456,0.47395183,1
0,457,0.59473611,1
0,458,0.69819946,1
0,459,0.82678088,1
0,460,0.57516625,1
0,461,0.40119607,1
0,462,0.34996612,1
0,463,0.14805279,1
0,464,-0.033206288,1
0,465,-0.11426641,1
0,466,0.12034538,1
0,467,-0.22010169,1
0,468,-0.15122608,1
0,469,-0.077444659,1
0,470,-0.097868776,1
0,471,-0.13678697,1
0,472,-0.34023669,1
0,473,-0.089441428,1
0,474,-0.080297278,1
0,475,-0.19258444,1
0,476,-0.30470444,1
0,477,-0.45455625,1
0,478,0.31459,1
0,479,0.5821895,1
0,480,0.40473265,1
0,481,1.2808587,1
0,482,2.5151479,1
0,483,1.2995187,1
0,484,1.4534323,1
0,485,0.47427508,1
0,486,-1.3965619,1
0,487,-0.64708079,1
0,488,0.4319451,1
0,489,0.13244512,1
0,490,-0.40660902,1
0,491,0.23056633,1
0,492,-0.12135267,1
0,493,-0.9186398,1
0,494,-1.2467709,1
0,495,-1.3483736,1
0,496,-1.1902833,1
0,497,-1.0112698,1
0,498,-2.0039201,1
0,499,-1.3270367,1
0,500,-0.97603428,1
0,501,-1.8636169,1
0,502,-1.4876914,1
0,503,-1.6161399,1
0,504,-1.9575634,1
0,505,-1.7006637,1
0,506,-1.5184788,1
0,507,-1.8975843,1
0,508,-2.1771748,1
0,509,-1.8727894,1
0,510,-1.7752905,1
0,511,-1.6681586,1
0,512,-1.9333433,1
0,513,-1.4896118,1
0,514,-1.1507331,1
0,515,-1.0781561,1
0,516,-0.77372316,1
0,517,-0.5202207,1
0,518,-0.20525277,1
0,519,-0.026608191,1
0,520,0.29905385,1
0,521,0.19431966,1
0,522,0.70179318,1
0,523,0.67189094,1
0,524,0.85378659,1
0,525,0.67685205,1
0,526,0.89891601,1
0,527,0.77225822,1
0,528,0.6498631,1
0,529,0.63881629,1
0,530,0.67025023,1
0,531,1.0374359,1
0,532,0.43305326,1
0,533,0.65715862,1
0,534,0.52901327,1
0,535,0.56207051,1
0,536,1.0283513,1
0,537,-0.019686467,1
0,538,1.1777618,1
0,539,0.84790423,1
0,540,0.16943202,1
0,541,0.67343368,1
0,542,0.6352647,1
0,543,0.74822003,1
0,544,0.64016663,1
0,545,0.59131589,1
0,546,0.43168075,1
0,547,0.71749974,1
0,548,0.59541636,1
0,549,0.45848779,1
0,550,0.48356648,1
0,551,0.65571268,1
0,552,0.49079447,1
0,553,1.0668703,1
0,554,0.92914878,1
0,555,0.93902615,1
0,556,1.3121779,1
0,557,0.58060433,1
0,558,0.57095928,1
0,559,0.52277452,1
0,560,0.44632254,1
0,561,0.6206822,1
0,562,0.049713371,1
0,563,0.2698563,1
0,564,0.41891845,1
0,565,-0.064345669,1
0,566,0.37646912,1
0,567,0.27781111,1
0,568,0.22567582,1
0,569,0.15909081,1
0,570,0.40835397,1
0,571,0.54001519,1
0,572,-0.027791159,1
0,573,0.20347623,1
0,574,0.34696389,1
0,575,0.33918469,1
0,576,1.2050062,-1
0,577,2.0318554,-1
0,578,2.4472937,-1
0,579,2.7394479,-1
0,580,2.7458899,-1
0,581,2.2763553,-1
0,582,1.5253659,-1
0,583,0.76059655,-1
0,584,0.18844767,-1
0,585,-0.029051462,-1
0,586,-0.049523678,-1
0,587,-0.20996418,-1
0,588,-0.37415034,-1
0,589,-0.24863758,-1
0,590,-0.095016682,-1
0,591,-0.099479162,-1
0,592,-0.12141585,-1
0,593,-0.35854858,-1
0,594,-0.73913476,-1
0,595,-0.78765165,-1
0,596,-0.70894109,-1
0,597,-0.75975595,-1
0,598,-0.74105769,-1
0,599,-0.88170685,-1
0,600,-1.018906,-1
0,601,-0.58138267,-1
0,602,-0.35899328,-1
0,603,-0.92421814,-1
0,604,-1.0948085,-1
0,605,-0.66136445,-1
0,606,-0.78512404,-1
0,607,-1.2881566,-1
0,608,-1.3345034,-1
0,609,-1.267791,-1
0,610,-1.5021425,-1
0,611,-1.6399716,-1
0,612,-1.5339625,-1
0,613,-1.566857,-1
0,614,-1.7309945,-1
0,615,-1.7196664,-1
0,616,-1.6684945,-1
0,617,-1.7355071,-1
0,618,-1.6472869,-1
0,619,-1.3875588,-1
0,620,-1.3096055,-1
0,621,-1.3196536,-1
0,622,-1.1003919,-1
0,623,-0.90045831,-1
0,624,-0.93434224,-1
0,625,-0.76519269,-1
0,626,-0.31750385,-1
0,627,-0.12712004,-1
0,628,-0.12393914,-1
0,629,0.094417909,-1
0,630,0.28842606,-1
0,631,0.26134707,-1
0,632,0.28973234,-1
0,633,0.40727778,-1
0,634,0.43663741,-1
0,635,0.44930812,-1
0,636,0.57086672,-1
0,637,0.71117799,-1
0,638,0.67270791,-1
0,639,0.50102225,-1
0,640,0.50474276,-1
0,641,0.6440953,-1
0,642,0.5693421,-1
0,643,0.40637792,-1
0,644,0.45022584,-1
0,645,0.51752375,-1
0,646,0.50276501,-1
0,647,0.57193338,-1
0,648,0.63469281,-1
0,649,0.6493091,-1
0,650,0.70308117,-1
0,651,0.58769289,-1
0,652,0.355199,-1
0,653,0.39096336,-1
0,654,0.55882641,-1
0,655,0.6110082,-1
0,656,0.69257515,-1
0,657,0.79444623,-1
0,658,0.89688657,-1
0,659,1.0514822,-1
0,660,0.9391156,-1
0,661,0.5557415,-1
0,662,0.44731137,-1
0,663,0.5646415,-1
0,664,0.48760026,-1
0,665,0.42100331,-1
0,666,0.54976604,-1
0,667,0.5054632,-1
0,668,0.28184434,-1
0,669,0.34683145,-1
0,670,0.52637517,-1
0,671,0.22788969,-1
0,672,0.59824137,-1
0,673,1.0987288,-1
0,674,1.6835287,-1
0,675,2.4789134,-1
0,676,2.8024127,-1
0,677,2.438696,-1
0,678,1.7176569,-1
0,679,1.0093086,-1
0,680,0.25735084,-1
0,681,-0.22155853,-1
0,682,-0.13558175,-1
0,683,-0.1912687,-1
0,684,-0.30697176,-1
0,685,-0.16764052,-1
0,686,-0.098005103,-1
0,687,-0.056259596,-1
0,688,-0.3234,-1
0,689,-0.6301811,-1
0,690,-0.56971894,-1
0,691,-0.70940747,-1
0,692,-0.75032305,-1
0,693,-0.67332704,-1
0,694,-0.98010141,-1
0,695,-1.2071136,-1
0,696,-1.1813802,-1
0,697,-1.0263965,-1
0,698,-1.2994876,-1
0,699,-1.9288823,-1
0,700,-1.9076361,-1
0,701,-1.8688252,-1
0,702,-1.9906124,-1
0,703,-2.0116357,-1
0,704,-2.4026522,-1
0,705,-2.1440318,-1
0,706,-1.6618146,-1
0,707,-1.9393573,-1
0,708,-1.8722725,-1
0,709,-1.5546911,-1
0,710,-1.3011939,-1
0,711,-1.0164506,-1
0,712,-0.97927654,-1
0,713,-0.70625453,-1
0,714,-0.30337161,-1
0,715,-0.012646325,-1
0,716,0.169673,-1
0,717,0.091329657,-1
0,718,0.25028041,-1
0,719,0.38726526,-1
0,720,0.25792917,-1
0,721,0.42929196,-1
0,722,0.51751195,-1
0,723,0.40467528,-1
0,724,0.51198192,-1
0,725,0.57732858,-1
0,726,0.52189259,-1
0,727,0.55256222,-1
0,728,0.60213932,-1
0,729,0.54817524,-1
0,730,0.41385248,-1
0,731,0.37404084,-1
0,732,0.51866444,-1
0,733,0.55101816,-1
0,734,0.41477723,-1
0,735,0.48080068,-1
0,736,0.59543525,-1
0,737,0.56873712,-1
0,738,0.72196906,-1
0,739,0.84312816,-1
0,740,0.6168265,-1
0,741,0.60801778,-1
0,742,0.77629989,-1
0,743,0.61682123,-1
0,744,0.59952044,-1
0,745,0.68892604,-1
0,746,0.5307274,-1
0,747,0.54462062,-1
0,748,0.65981978,-1
0,749,0.56485534,-1
0,750,0.47263422,-1
0,751,0.45420433,-1
0,752,0.40649302,-1
0,753,0.31572594,-1
0,754,0.15547546,-1
0,755,0.15012374,-1
0,756,0.35439193,-1
0,757,0.37869259,-1
0,758,0.39462999,-1
0,759,0.5257822,-1
0,760,0.279348,-1
0,761,-0.069657784,-1
0,762,0.027543961,-1
0,763,0.15302475,-1
0,764,0.042231911,-1
0,765,0.13426885,-1
0,766,0.29615038,-1
0,767,0.06293182,-1
0,768,0.32800826,1
0,769,1.2102222,1
0,770,2.5976534,1
0,771,2.2107785,1
0,772,1.6216664,1
0,773,-0.23932105,1
0,774,-1.5987116,1
0,775,-0.60213646,1
0,776,-0.08660337,1
0,777,0.026581391,1
0,778,-0.30304941,1
0,779,-0.37246008,1
0,780,-0.27912982,1
0,781,-0.94947081,1
0,782,-0.9640863,1
0,783,-0.95486094,1
0,784,-1.2032956,1
0,785,-1.3401393,1
0,786,-1.3715076,1
0,787,-1.1738752,1
0,788,-1.4189553,1
0,789,-1.5592412,1
0,790,-1.3084412,1
0,791,-1.8123748,1
0,792,-1.699133,1
0,793,-1.5041931,1
0,794,-2.0016292,1
0,795,-1.8574369,1
0,796,-1.9543183,1
0,797,-1.7167091,1
0,798,-2.1675454,1
0,799,-1.6748811,1
0,800,-1.8145649,1
0,801,-1.5073572,1
0,802,-0.99970388,1
0,803,-1.0499143,1
0,804,-0.51484779,1
0,805,-0.29834696,1
0,806,0.12887592,1
0,807,0.37943089,1
0,808,0.47460243,1
0,809,0.60646546,1
0,810,1.0355295,1
0,811,0.9076036,1
0,812,1.0428804,1
0,813,0.91986476,1
0,814,1.1408321,1
0,815,0.85017406,1
0,816,0.78688814,1
0,817,1.0158116,1
0,818,0.78087507,1
0,819,0.80101238,1
0,820,0.65621393,1
0,821,0.6961819,1
0,822,0.67790021,1
0,823,0.90150874,1
0,824,0.65491565,1
0,825,0.81448478,1
0,826,0.85914247,1
0,827,0.68344701,1
0,828,0.64021189,1
0,829,0.79177879,1
0,830,0.56013986,1
0,831,0.63391226,1
0,832,0.77200739,1
0,833,0.41966977,1
0,834,0.63479984,1
0,835,0.53577461,1
0,836,0.32129593,1
0,837,0.48255678,1
0,838,0.57630614,1
0,839,0.28996466,1
0,840,0.68976896,1
0,841,0.85559866,1
0,842,0.75653094,1
0,843,0.86012922,1
0,844,0.72387774,1
0,845,0.4458859,1
0,846,0.52091469,1
0,847,0.59710275,1
0,848,0.0041582105,1
0,849,0.18873901,1
0,850,0.35839279,1
0,851,-0.16948401,1
0,852,0.31336029,1
0,853,0.12599111,1
0,854,-0.046115194,1
0,855,0.099801472,1
0,856,-0.05288849,1
0,857,0.11905553,1
0,858,0.061988986,1
0,859,-0.060122169,1
0,860,-0.030952939,1
0,861,0.001111159,1
0,862,0.22771811,1
0,863,0.23970956,1
0,864,1.668206,1
0,865,2.8481734,1
0,866,2.5169776,1
0,867,2.1727729,1
0,868,0.72046706,1
0,869,0.72537573,1
0,870,1.6386019,1
0,871,1.2929038,1
0,872,1.6095656,1
0,873,1.395034,1
0,874,0.1492802,1
0,875,-0.33322555,1
0,876,-0.45278197,1
0,877,-0.78508967,1
0,878,-0.82853298,1
0,879,-0.82657129,1
0,880,-0.97349672,1
0,881,-1.1701115,1
0,882,-1.1505492,1
0,883,-1.2575322,1
0,884,-1.4203531,1
0,885,-1.48459,1
0,886,-1.4657847,1
0,887,-1.3779393,1
0,888,-1.6042484,1
0,889,-1.7756386,1
0,890,-1.7615261,1
0,891,-2.0809162,1
0,892,-2.227107,1
0,893,-1.957896,1
0,894,-2.1089526,1
0,895,-1.89408,1
0,896,-1.8003226,1
0,897,-1.464235,1
0,898,-1.0480598,1
0,899,-0.89517518,1
0,900,-0.49069907,1
0,901,-0.017316799,1
0,902,0.20345441,1
0,903,0.27883112,1
0,904,0.67502424,1
0,905,0.65510886,1
0,906,0.68048762,1
0,907,0.71907747,1
0,908,0.72019,1
0,909,0.65602258,1
0,910,0.53604253,1
0,911,0.66836543,1
0,912,0.68619346,1
0,913,0.55904631,1
0,914,0.56085022,1
0,915,0.65964585,1
0,916,0.70940886,1
0,917,0.61547611,1
0,918,0.63125517,1
0,919,0.56741509,1
0,920,0.40070829,1
0,921,0.45704242,1
0,922,0.50830249,1
0,923,0.41179677,1
0,924,0.40052745,1
0,925,0.36189013,1
0,926,0.26791711,1
0,927,0.32174868,1
0,928,0.26268828,1
0,929,0.22581812,1
0,930,0.25668612,1
0,931,0.14650693,1
0,932,0.12344467,1
0,933,0.10569229,1
0,934,0.19601456,1
0,935,0.06434636,1
0,936,0.08059776,1
0,937,0.33326736,1
0,938,0.29294268,1
0,939,0.38261291,1
0,940,0.6815076,1
0,941,0.61509956,1
0,942,0.32699335,1
0,943,0.165494,1
0,944,0.09622552,1
0,945,0.018381314,1
0,946,-0.036049008,1
0,947,-0.022687817,1
0,948,-0.0061312772,1
0,949,-0.014322565,1
0,950,-0.15436469,1
0,951,-0.017805312,1
0,952,-0.0075062626,1
0,953,0.0053624637,1
0,954,-0.026597446,1
0,955,-0.048192086,1
0,956,-0.032347036,1
0,957,-0.21405366,1
0,958,0.05603087,1
0,959,0.14788919,1
0,960,0.48223006,1
0,961,0.98683211,1
0,962,1.4437677,1
0,963,2.1864284,1
0,964,2.5175393,1
0,965,1.878655,1
0,966,1.0926861,1
0,967,0.35257487,1
0,968,-0.29388443,1
0,969,-0.11538824,1
0,970,0.32008756,1
0,971,0.20484042,1
0,972,0.09906004,1
0,973,0.22945554,1
0,974,0.24823268,1
0,975,0.18641973,1
0,976,-0.18922971,1
0,977,-0.53960038,1
0,978,-0.45736717,1
0,979,-0.55985517,1
0,980,-0.68034464,1
0,981,-0.53120819,1
0,982,-0.55707366,1
0,983,-0.70828793,1
0,984,-0.79252432,1
0,985,-0.80892495,1
0,986,-0.89253087,1
0,987,-1.1835253,1
0,988,-1.3928976,1
0,989,-1.4238268,1
0,990,-1.6533368,1
0,991,-1.856352,1
0,992,-1.8704229,1
0,993,-2.2614426,1
0,994,-2.453607,1
0,995,-2.2074149,1
0,996,-2.2577907,1
0,997,-2.1794258,1
0,998,-1.9632911,1
0,999,-1.8399026,1
0,1000,-1.5235893,1
0,1001,-1.3561556,1
0,1002,-1.0186789,1
0,1003,-0.47368223,1
0,1004,-0.34465464,1
0,1005,-0.17375591,1
0,1006,0.20482204,1
0,1007,0.29904266,1
0,1008,0.31969949,1
0,1009,0.5891394,1
0,1010,0.78199311,1
0,1011,0.65391305,1
0,1012,0.64801647,1
0,1013,0.81655292,1
0,1014,0.78281835,1
0,1015,0.77050817,1
0,1016,0.82553256,1
0,1017,0.67838148,1
0,1018,0.53792373,1
0,1019,0.53594711,1
0,1020,0.56489515,1
0,1021,0.5541468,1
0,1022,0.48341517,1
0,1023,0.43787624,1
0,1024,0.40430356,1
0,1025,0.39575539,1
0,1026,0.48234983,1
0,1027,0.51771464,1
0,1028,0.47598645,1
0,1029,0.53858068,1
0,1030,0.63027485,1
0,1031,0.61814456,1
0,1032,0.6643433,1
0,1033,0.86471428,1
0,1034,1.1087905,1
0,1035,1.2390306,1
0,1036,1.0899692,1
0,1037,0.84222734,1
0,1038,0.93301907,1
0,1039,0.89372385,1
0,1040,0.40913431,1
0,1041,0.29969234,1
0,1042,0.35868333,1
0,1043,0.16955164,1
0,1044,0.28576098,1
0,1045,0.32195206,1
0,1046,0.033172873,1
0,1047,0.0068894041,1
0,1048,-0.057385843,1
0,1049,-0.30633237,1
0,1050,-0.06741053,1
0,1051,0.22519356,1
0,1052,0.06938688,1
0,1053,0.058976001,1
0,1054,0.20719931,1
0,1055,0.13314702,1
0,1056,0.27482721,1
0,1057,0.48103668,1
0,1058,0.91926414,1
0,1059,1.5386127,1
0,1060,2.0466195,1
0,1061,2.2471427,1
0,1062,1.8813336,1
0,1063,1.2234635,1
0,1064,0.58100914,1
0,1065,-0.013895524,1
0,1066,0.075209638,1
0,1067,0.32472237,1
0,1068,-0.0998377,1
0,1069,-0.16934754,1
0,1070,0.0027368262,1
0,1071,-0.068218734,1
0,1072,-0.26885261,1
0,1073,-0.87451394,1
0,1074,-0.96353972,1
0,1075,-0.63926924,1
0,1076,-0.97817777,1
0,1077,-1.0722797,1
0,1078,-0.84334825,1
0,1079,-1.1584434,1
0,1080,-1.2610084,1
0,1081,-1.1861971,1
0,1082,-1.4552122,1
0,1083,-1.6929553,1
0,1084,-1.9015054,1
0,1085,-1.681844,1
0,1086,-1.5709794,1
0,1087,-2.0163766,1
0,1088,-2.1418538,1
0,1089,-2.0269626,1
0,1090,-1.9896808,1
0,1091,-1.815479,1
0,1092,-2.0673586,1
0,1093,-2.1749792,1
0,1094,-1.5897112,1
0,1095,-1.3725735,1
0,1096,-1.2477559,1
0,1097,-0.88125119,1
0,1098,-0.6872476,1
0,1099,-0.40212389,1
0,1100,-0.20059631,1
0,1101,-0.071597842,1
0,1102,0.031612797,1
0,1103,0.080364427,1
0,1104,0.21287398,1
0,1105,0.3354064,1
0,1106,0.47743425,1
0,1107,0.53826973,1
0,1108,0.48987919,1
0,1109,0.51794475,1
0,1110,0.53220601,1
0,1111,0.48414343,1
0,1112,0.48955919,1
0,1113,0.51085975,1
0,1114,0.42388961,1
0,1115,0.49546141,1
0,1116,0.7047736,1
0,1117,0.56084504,1
0,1118,0.43955004,1
0,1119,0.58182821,1
0,1120,0.61366758,1
0,1121,0.63757675,1
0,1122,0.66634325,1
0,1123,0.63429892,1
0,1124,0.65031586,1
0,1125,0.70749353,1
0,1126,0.76192815,1
0,1127,0.75524205,1
0,1128,0.78469797,1
0,1129,0.9191244,1
0,1130,0.96093655,1
0,1131,0.91454644,1
0,1132,0.99706479,1
0,1133,1.0213727,1
0,1134,0.83071642,1
0,1135,0.75422812,1
0,1136,0.73992558,1
0,1137,0.53291993,1
0,1138,0.44239105,1
0,1139,0.50658326,1
0,1140,0.44782721,1
0,1141,0.42828057,1
0,1142,0.43737808,1
0,1143,0.3422193,1
0,1144,0.38030214,1
0,1145,0.36825288,1
0,1146,0.25368051,1
0,1147,0.29288411,1
0,1148,0.29816396,1
0,1149,0.3171801,1
0,1150,0.42303507,1
0,1151,0.26151674,1
0,1152,-0.70630453,1
0,1153,-0.22618127,1
0,1154,0.21619952,1
0,1155,-0.31772657,1
0,1156,-0.64897192,1
0,1157,-1.2193491,1
0,1158,-1.524295,1
0,1159,-1.5080601,1
0,1160,-1.5508989,1
0,1161,-1.6004537,1
0,1162,-1.6891668,1
0,1163,-1.3953936,1
0,1164,-1.4708313,1
0,1165,-1.5817696,1
0,1166,-1.3080662,1
0,1167,-1.3220377,1
0,1168,-1.3201542,1
0,1169,-1.3945806,1
0,1170,-1.2384409,1
0,1171,-1.3179835,1
0,1172,-1.4283442,1
0,1173,-1.3303188,1
0,1174,-1.3595008,1
0,1175,-1.3505409,1
0,1176,-1.4492425,1
0,1177,-1.4248941,1
0,1178,-1.2990896,1
0,1179,-1.1066066,1
0,1180,-0.97070858,1
0,1181,-0.78746971,1
0,1182,-0.40474516,1
0,1183,-0.23162907,1
0,1184,-0.067758632,1
0,1185,0.14492215,1
0,1186,0.42255456,1
0,1187,0.53402642,1
0,1188,0.35755296,1
0,1189,0.52821483,1
0,1190,0.4617568,1
0,1191,0.36351216,1
0,1192,0.313566,1
0,1193,-0.023153428,1
0,1194,0.2423185,1
0,1195,-0.0023966644,1
0,1196,0.0079621215,1
0,1197,0.025180826,1
0,1198,-0.046041074,1
0,1199,0.31519173,1
0,1200,0.21896092,1
0,1201,0.30766391,1
0,1202,0.53138597,1
0,1203,0.41760631,1
0,1204,0.48482066,1
0,1205,0.56905186,1
0,1206,0.70470753,1
0,1207,0.67666848,1
0,1208,0.63186926,1
0,1209,0.80665436,1
0,1210,0.67985002,1
0,1211,0.57379448,1
0,1212,0.69169559,1
0,1213,0.70951523,1
0,1214,0.68260676,1
0,1215,0.60653853,1
0,1216,0.62393644,1
0,1217,0.53698955,1
0,1218,0.79352766,1
0,1219,1.1080892,1
0,1220,1.0154766,1
0,1221,1.1737391,1
0,1222,0.67925679,1
0,1223,0.57059741,1
0,1224,0.48242833,1
0,1225,0.33532385,1
0,1226,0.415497,1
0,1227,0.26353051,1
0,1228,0.26492582,1
0,1229,0.19964877,1
0,1230,0.22967746,1
0,1231,0.32640105,1
0,1232,0.20278218,1
0,1233,0.18153191,1
0,1234,0.23192633,1
0,1235,0.38609804,1
0,1236,0.26526622,1
0,1237,0.24689965,1
0,1238,0.33816714,1
0,1239,0.12088731,1
0,1240,0.33196993,1
0,1241,0.64158999,1
0,1242,1.5313945,1
0,1243,3.12484,1
0,1244,3.3320526,1
0,1245,2.6537407,1
0,1246,1.1553846,1
0,1247,-0.36681942,1
0,1248,0.98754646,1
0,1249,2.8132911,1
0,1250,3.8502628,1
0,1251,2.3797891,1
0,1252,1.6998137,1
0,1253,0.078576335,1
0,1254,-0.59667118,1
0,1255,0.82701885,1
0,1256,0.87119579,1
0,1257,0.80990883,1
0,1258,0.84297108,1
0,1259,0.60561297,1
0,1260,0.089042884,1
0,1261,-0.59212075,1
0,1262,-0.64018804,1
0,1263,-0.58381473,1
0,1264,-1.021813,1
0,1265,-0.87248309,1
0,1266,-0.97818045,1
0,1267,-1.0883289,1
0,1268,-1.0609642,1
0,1269,-1.2332062,1
0,1270,-1.3973797,1
0,1271,-1.4201622,1
0,1272,-1.2854148,1
0,1273,-1.6192753,1
0,1274,-1.6767422,1
0,1275,-1.5017018,1
0,1276,-1.6669005,1
0,1277,-1.8556772,1
0,1278,-1.9268678,1
0,1279,-1.5274143,1
0,1280,-1.6123279,1
0,1281,-1.6619347,1
0,1282,-1.2214505,1
0,1283,-1.0313656,1
0,1284,-0.56222713,1
0,1285,-0.14094272,1
0,1286,-0.044415415,1
0,1287,0.40790194,1
0,1288,0.64344005,1
0,1289,0.52700599,1
0,1290,0.96391793,1
0,1291,1.1173067,1
0,1292,0.86714949,1
0,1293,1.1099007,1
0,1294,0.94822195,1
0,1295,0.90597994,1
0,1296,0.80929904,1
0,1297,0.8630134,1
0,1298,0.76800848,1
0,1299,0.57859233,1
0,1300,0.83727355,1
0,1301,0.42243563,1
0,1302,0.55999064,1
0,1303,0.74246549,1
0,1304,0.55067561,1
0,1305,0.52511349,1
0,1306,0.63924848,1
0,1307,0.47647589,1
0,1308,0.39718967,1
0,1309,0.54513339,1
0,1310,0.3330331,1
0,1311,0.36683921,1
0,1312,0.44647151,1
0,1313,0.078466812,1
0,1314,0.20627515,1
0,1315,0.33430092,1
0,1316,0.10823433,1
0,1317,0.0034538347,1
0,1318,0.028080629,1
0,1319,0.28769202,1
0,1320,0.24131422,1
0,1321,0.69449025,1
0,1322,0.67393263,1
0,1323,0.49159487,1
0,1324,0.5070639,1
0,1325,0.10098599,1
0,1326,0.25562729,1
0,1327,-0.080152137,1
0,1328,-0.40710484,1
0,1329,-0.17139404,1
0,1330,-0.44053475,1
0,1331,-0.32062696,1
0,1332,-0.37312979,1
0,1333,-0.42548927,1
0,1334,-0.24189468,1
0,1335,-0.69143558,1
0,1336,-0.40364135,1
0,1337,-0.29384537,1
0,1338,-0.5591784,1
0,1339,-0.19439362,1
0,1340,-0.55988427,1
0,1341,-0.70637758,1
0,1342,-0.30707688,1
0,1343,-0.22249628,1
0,1344,0.50112303,-1
0,1345,0.72913063,-1
0,1346,0.83374023,-1
0,1347,1.2557705,-1
0,1348,2.0013616,-1
0,1349,2.5040332,-1
0,1350,2.4541953,-1
0,1351,2.2203273,-1
0,1352,2.1224353,-1
0,1353,1.9165236,-1
0,1354,1.3821329,-1
0,1355,0.73544948,-1
0,1356,0.22085538,-1
0,1357,-0.04881732,-1
0,1358,0.058893288,-1
0,1359,0.37064182,-1
0,1360,0.35392528,-1
0,1361,-0.056939609,-1
0,1362,-0.27014949,-1
0,1363,-0.030288404,-1
0,1364,0.18392629,-1
0,1365,0.034146417,-1
0,1366,-0.18551869,-1
0,1367,-0.1769411,-1
0,1368,-0.14088564,-1
0,1369,-0.33827446,-1
0,1370,-0.56327929,-1
0,1371,-0.53183852,-1
0,1372,-0.39902793,-1
0,1373,-0.47085456,-1
0,1374,-0.69888015,-1
0,1375,-0.86421976,-1
0,1376,-0.92543852,-1
0,1377,-0.92040642,-1
0,1378,-0.88177787,-1
0,1379,-0.94323662,-1
0,1380,-1.2015819,-1
0,1381,-1.4695271,-1
0,1382,-1.496398,-1
0,1383,-1.4124957,-1
0,1384,-1.56781,-1
0,1385,-1.9120904,-1
0,1386,-1.9972442,-1
0,1387,-1.7388993,-1
0,1388,-1.5818148,-1
0,1389,-1.716598,-1
0,1390,-1.7979588,-1
0,1391,-1.6296142,-1
0,1392,-1.4509832,-1
0,1393,-1.4278371,-1
0,1394,-1.4234267,-1
0,1395,-1.3124234,-1
0,1396,-1.1325473,-1
0,1397,-0.92964111,-1
0,1398,-0.71796579,-1
0,1399,-0.53865342,-1
0,1400,-0.41701616,-1
0,1401,-0.29451916,-1
0,1402,-0.13417765,-1
0,1403,-0.029799267,-1
0,1404,-0.047161714,-1
0,1405,-0.059706364,-1
0,1406,0.087574776,-1
0,1407,0.29597052,-1
0,1408,0.35727159,-1
0,1409,0.30529841,-1
0,1410,0.3596797,-1
0,1411,0.53631147,-1
0,1412,0.60598555,-1
0,1413,0.52141357,-1
0,1414,0.49248463,-1
0,1415,0.56384421,-1
0,1416,0.5486995,-1
0,1417,0.45977545,-1
0,1418,0.53210383,-1
0,1419,0.75307517,-1
0,1420,0.84651787,-1
0,1421,0.7551361,-1
0,1422,0.69976801,-1
0,1423,0.73676406,-1
0,1424,0.65962871,-1
0,1425,0.45889683,-1
0,1426,0.42427792,-1
0,1427,0.57514723,-1
0,1428,0.55918781,-1
0,1429,0.35328436,-1
0,1430,0.3580163,-1
0,1431,0.60588882,-1
0,1432,0.71096266,-1
0,1433,0.61971023,-1
0,1434,0.56493009,-1
0,1435,0.55611367,-1
0,1436,0.56181896,-1
0,1437,0.65818662,-1
0,1438,0.63971097,-1
0,1439,0.24261796,-1
0,1440,2.2487902,1
0,1441,3.5350384,1
0,1442,2.8882737,1
0,1443,2.7209197,1
0,1444,0.86212017,1
0,1445,0.3755771,1
0,1446,1.6392038,1
0,1447,1.2831241,1
0,1448,1.1570711,1
0,1449,1.1850721,1
0,1450,0.59537694,1
0,1451,-0.05150871,1
0,1452,-0.43380888,1
0,1453,-0.37916601,1
0,1454,-0.52318316,1
0,1455,-0.71830401,1
0,1456,-0.71356612,1
0,1457,-0.82040631,1
0,1458,-0.85969474,1
0,1459,-1.0077108,1
0,1460,-1.1345552,1
0,1461,-1.0714557,1
0,1462,-1.1277623,1
0,1463,-1.3159615,1
0,1464,-1.5013693,1
0,1465,-1.5051951,1
0,1466,-1.6538586,1
0,1467,-1.8809025,1
0,1468,-1.8100991,1
0,1469,-1.8814254,1
0,1470,-1.9864112,1
0,1471,-1.9802986,1
0,1472,-1.7677252,1
0,1473,-1.4316559,1
0,1474,-1.2489468,1
0,1475,-0.92451407,1
0,1476,-0.49763379,1
0,1477,-0.15127407,1
0,1478,0.19643811,1
0,1479,0.36145691,1
0,1480,0.52481618,1
0,1481,0.78185211,1
0,1482,0.85574991,1
0,1483,0.86800457,1
0,1484,0.82624508,1
0,1485,0.78078015,1
0,1486,0.72518763,1
0,1487,0.65159462,1
0,1488,0.65550067,1
0,1489,0.52495374,1
0,1490,0.56875127,1
0,1491,0.72005592,1
0,1492,0.5729603,1
0,1493,0.50084141,1
0,1494,0.49535629,1
0,1495,0.51489919,1
0,1496,0.5163807,1
0,1497,0.40598206,1
0,1498,0.42214327,1
0,1499,0.41079177,1
0,1500,0.3194716,1
0,1501,0.31647894,1
0,1502,0.30740853,1
0,1503,0.25230219,1
0,1504,0.098817208,1
0,1505,0.058965974,1
0,1506,0.14112748,1
0,1507,0.074438681,1
0,1508,0.010571305,1
0,1509,0.018008545,1
0,1510,0.06032822,1
0,1511,-0.0052835382,1
0,1512,-0.039992762,1
0,1513,0.085052042,1
0,1514,0.23214528,1
0,1515,0.38484877,1
0,1516,0.40289912,1
0,1517,0.39355616,1
0,1518,0.24032629,1
0,1519,0.053103837,1
0,1520,-0.015459353,1
0,1521,-0.19510253,1
0,1522,-0.19249284,1
0,1523,-0.34953564,1
0,1524,-0.43444403,1
0,1525,-0.23053023,1
0,1526,-0.27959324,1
0,1527,-0.39912965,1
0,1528,-0.35639212,1
0,1529,-0.25185433,1
0,1530,-0.31717097,1
0,1531,-0.35169056,1
0,1532,-0.25222444,1
0,1533,-0.2754384,1
0,1534,-0.29134662,1
0,1535,-0.20508485,1
0,1536,0.31930911,1
0,1537,2.0916954,1
0,1538,3.4437763,1
0,1539,2.2330166,1
0,1540,2.3024139,1
0,1541,0.62160769,1
0,1542,-0.88666448,1
0,1543,0.24808104,1
0,1544,0.49880185,1
0,1545,-0.098005224,1
0,1546,-0.030765777,1
0,1547,0.34472022,1
0,1548,-0.38987174,1
0,1549,-0.62012368,1
0,1550,-1.0453047,1
0,1551,-1.0410438,1
0,1552,-0.61869683,1
0,1553,-1.1784057,1
0,1554,-1.1975206,1
0,1555,-1.0880619,1
0,1556,-1.3816531,1
0,1557,-1.2971845,1
0,1558,-1.3249303,1
0,1559,-1.501298,1
0,1560,-1.6616468,1
0,1561,-1.8333884,1
0,1562,-1.8141706,1
0,1563,-1.6741169,1
0,1564,-1.8588047,1
0,1565,-1.9986341,1
0,1566,-2.0455699,1
0,1567,-1.8967705,1
0,1568,-1.6343955,1
0,1569,-1.3429893,1
0,1570,-1.1656694,1
0,1571,-0.90722241,1
0,1572,-0.5020325,1
0,1573,-0.1439111,1
0,1574,0.20306092,1
0,1575,0.6738644,1
0,1576,0.70463673,1
0,1577,0.63686847,1
0,1578,1.1166565,1
0,1579,0.66957454,1
0,1580,1.1391991,1
0,1581,1.2432912,1
0,1582,0.77798058,1
0,1583,0.93665667,1
0,1584,0.70713413,1
0,1585,0.88868946,1
0,1586,0.9200951,1
0,1587,0.74580973,1
0,1588,0.65805635,1
0,1589,0.4053932,1
0,1590,0.82966271,1
0,1591,0.74840541,1
0,1592,0.5809532,1
0,1593,0.62708381,1
0,1594,0.48055791,1
0,1595,0.56559193,1
0,1596,0.6678784,1
0,1597,0.56885552,1
0,1598,0.45093787,1
0,1599,0.4585795,1
0,1600,0.38092638,1
0,1601,0.34950893,1
0,1602,0.39879126,1
0,1603,0.22800942,1
0,1604,0.14285328,1
0,1605,0.10983773,1
0,1606,0.20422445,1
0,1607,0.10185956,1
0,1608,0.27016878,1
0,1609,0.45458897,1
0,1610,0.68958872,1
0,1611,0.92953394,1
0,1612,0.50570993,1
0,1613,0.36376327,1
0,1614,0.44699331,1
0,1615,0.29017508,1
0,1616,0.040298406,1
0,1617,-0.20253657,1
0,1618,-0.083446265,1
0,1619,-0.15863462,1
0,1620,-0.042542894,1
0,1621,-0.19342755,1
0,1622,-0.16064206,1
0,1623,-0.20791505,1
0,1624,-0.16577684,1
0,1625,-0.18602181,1
0,1626,-0.18400319,1
0,1627,-0.02605305,1
0,1628,-0.27751489,1
0,1629,-0.12845581,1
0,1630,-0.042731837,1
0,1631,-0.17717182,1
0,1632,0.6303957,1
0,1633,2.1919773,1
0,1634,3.5209004,1
0,1635,2.7300388,1
0,1636,2.1389401,1
0,1637,0.56072695,1
0,1638,-0.67853152,1
0,1639,0.73745468,1
0,1640,1.1284541,1
0,1641,0.61621496,1
0,1642,0.95796663,1
0,1643,0.84746895,1
0,1644,-0.0042978538,1
0,1645,-0.49077663,1
0,1646,-0.53657841,1
0,1647,-0.75626983,1
0,1648,-0.8623727,1
0,1649,-0.92217942,1
0,1650,-0.91724381,1
0,1651,-1.0339617,1
0,1652,-1.0888734,1
0,1653,-1.1075535,1
0,1654,-1.1772523,1
0,1655,-1.3366449,1
0,1656,-1.5629357,1
0,1657,-1.4416866,1
0,1658,-1.5250047,1
0,1659,-1.807127,1
0,1660,-1.9284675,1
0,1661,-1.9496758,1
0,1662,-1.819808,1
0,1663,-1.7579563,1
0,1664,-1.7316727,1
0,1665,-1.674876,1
0,1666,-1.3019642,1
0,1667,-1.0401643,1
0,1668,-0.7638732,1
0,1669,-0.34104548,1
0,1670,-0.16280014,1
0,1671,0.24012595,1
0,1672,0.31242077,1
0,1673,0.53646954,1
0,1674,1.0895203,1
0,1675,0.83278792,1
0,1676,0.81900637,1
0,1677,0.90212204,1
0,1678,0.79193508,1
0,1679,0.88963177,1
0,1680,0.77246854,1
0,1681,0.7469912,1
0,1682,0.66540339,1
0,1683,0.52013208,1
0,1684,0.7012037,1
0,1685,0.82642646,1
0,1686,0.66509135,1
0,1687,0.42308822,1
0,1688,0.68346718,1
0,1689,0.7785762,1
0,1690,0.36476564,1
0,1691,0.65740999,1
0,1692,0.90881109,1
0,1693,0.72742986,1
0,1694,0.4116391,1
0,1695,0.24151131,1
0,1696,0.41591219,1
0,1697,0.32387831,1
0,1698,0.27553765,1
0,1699,0.20409279,1
0,1700,0.22254801,1
0,1701,0.31690479,1
0,1702,0.084497126,1
0,1703,0.35334228,1
0,1704,0.37652863,1
0,1705,0.65982328,1
0,1706,0.81620248,1
0,1707,0.68012713,1
0,1708,0.31022602,1
0,1709,-0.20623397,1
0,1710,0.030208269,1
0,1711,0.094015152,1
0,1712,-0.10082389,1
0,1713,-0.28888674,1
0,1714,-0.26615541,1
0,1715,-0.15192877,1
0,1716,-0.4778374,1
0,1717,-0.22496145,1
0,1718,-0.27264759,1
0,1719,-0.484068,1
0,1720,-0.51663144,1
0,1721,-0.57430419,1
0,1722,-0.1411563,1
0,1723,-0.44795985,1
0,1724,-0.73801942,1
0,1725,-0.39860496,1
0,1726,-0.48868911,1
0,1727,-0.23231543,1
0,1728,1.0880765,-1
0,1729,1.5640399,-1
0,1730,1.3688902,-1
0,1731,1.2501573,-1
0,1732,1.4914982,-1
0,1733,1.6825891,-1
0,1734,1.2269507,-1
0,1735,0.34396908,-1
0,1736,-0.33531682,-1
0,1737,-0.72931956,-1
0,1738,-0.94971983,-1
0,1739,-1.0159285,-1
0,1740,-1.0660428,-1
0,1741,-1.1633754,-1
0,1742,-1.2074661,-1
0,1743,-1.2347116,-1
0,1744,-1.3248416,-1
0,1745,-1.3649445,-1
0,1746,-1.3312292,-1
0,1747,-1.356372,-1
0,1748,-1.370512,-1
0,1749,-1.3339249,-1
0,1750,-1.3781622,-1
0,1751,-1.3952861,-1
0,1752,-1.4009589,-1
0,1753,-1.4920148,-1
0,1754,-1.5029839,-1
0,1755,-1.5535053,-1
0,1756,-1.5988639,-1
0,1757,-1.4645683,-1
0,1758,-1.516411,-1
0,1759,-1.6458347,-1
0,1760,-1.5075231,-1
0,1761,-1.4002917,-1
0,1762,-1.3866241,-1
0,1763,-1.2240926,-1
0,1764,-1.0355959,-1
0,1765,-0.88889497,-1
0,1766,-0.67086707,-1
0,1767,-0.50035903,-1
0,1768,-0.30486991,-1
0,1769,-0.042425979,-1
0,1770,0.011476354,-1
0,1771,0.10149345,-1
0,1772,0.25839805,-1
0,1773,0.1373443,-1
0,1774,0.10318456,-1
0,1775,0.25942847,-1
0,1776,0.28884496,-1
0,1777,0.37561229,-1
0,1778,0.45706007,-1
0,1779,0.24608338,-1
0,1780,0.1670573,-1
0,1781,0.34107174,-1
0,1782,0.26229991,-1
0,1783,0.22048166,-1
0,1784,0.36496225,-1
0,1785,0.28835255,-1
0,1786,0.28827916,-1
0,1787,0.40272726,-1
0,1788,0.36496225,-1
0,1789,0.43108901,-1
0,1790,0.47695407,-1
0,1791,0.34008248,-1
0,1792,0.48674992,-1
0,1793,0.74087597,-1
0,1794,0.60662226,-1
0,1795,0.64531556,-1
0,1796,0.88255983,-1
0,1797,0.70573837,-1
0,1798,0.56069736,-1
0,1799,0.5381514,-1
0,1800,0.42585609,-1
0,1801,0.5963963,-1
0,1802,0.77936324,-1
0,1803,0.73281109,-1
0,1804,0.62376104,-1
0,1805,0.49063238,-1
0,1806,0.43944916,-1
0,1807,0.25488385,-1
0,1808,0.19750421,-1
0,1809,0.40071896,-1
0,1810,0.24904405,-1
0,1811,0.20962139,-1
0,1812,0.36496225,-1
0,1813,0.12984442,-1
0,1814,0.24432215,-1
0,1815,0.58525362,-1
0,1816,0.54764375,-1
0,1817,1.0933019,-1
0,1818,2.1507955,-1
0,1819,2.3850658,-1
0,1820,1.9938723,-1
0,1821,1.7602863,-1
0,1822,1.2692178,-1
0,1823,0.39910334,-1
0,1824,0.5264121,-1
0,1825,1.0079024,-1
0,1826,1.7898944,-1
0,1827,2.3580139,-1
0,1828,2.3014737,-1
0,1829,2.0870246,-1
0,1830,1.9675564,-1
0,1831,1.5140547,-1
0,1832,0.75045389,-1
0,1833,0.11539967,-1
0,1834,-0.22783536,-1
0,1835,-0.20111247,-1
0,1836,0.0014060274,-1
0,1837,-0.090393416,-1
0,1838,-0.36348937,-1
0,1839,-0.43495219,-1
0,1840,-0.42163636,-1
0,1841,-0.38390173,-1
0,1842,-0.24369553,-1
0,1843,-0.29330432,-1
0,1844,-0.59897814,-1
0,1845,-0.79239756,-1
0,1846,-0.79440992,-1
0,1847,-0.74223293,-1
0,1848,-0.70061494,-1
0,1849,-0.84145907,-1
0,1850,-1.1115483,-1
0,1851,-1.189314,-1
0,1852,-1.172079,-1
0,1853,-1.3321921,-1
0,1854,-1.5125598,-1
0,1855,-1.560419,-1
0,1856,-1.6294781,-1
0,1857,-1.7536262,-1
0,1858,-1.8152875,-1
0,1859,-1.8171945,-1
0,1860,-1.8183641,-1
0,1861,-1.8307318,-1
0,1862,-1.8100596,-1
0,1863,-1.6991048,-1
0,1864,-1.54577,-1
0,1865,-1.4566662,-1
0,1866,-1.4365454,-1
0,1867,-1.4095046,-1
0,1868,-1.2618154,-1
0,1869,-0.91441063,-1
0,1870,-0.52657305,-1
0,1871,-0.39644392,-1
0,1872,-0.50146707,-1
0,1873,-0.45028828,-1
0,1874,-0.13146598,-1
0,1875,0.069685738,-1
0,1876,0.045052045,-1
0,1877,0.12483771,-1
0,1878,0.26294534,-1
0,1879,0.2428136,-1
0,1880,0.3090242,-1
0,1881,0.4591846,-1
0,1882,0.29894485,-1
0,1883,0.096622746,-1
0,1884,0.32105926,-1
0,1885,0.55117831,-1
0,1886,0.35607157,-1
0,1887,0.19536367,-1
0,1888,0.41527749,-1
0,1889,0.5729076,-1
0,1890,0.41172368,-1
0,1891,0.33065713,-1
0,1892,0.45350512,-1
0,1893,0.4586406,-1
0,1894,0.39882301,-1
0,1895,0.494015,-1
0,1896,0.60765852,-1
0,1897,0.63189399,-1
0,1898,0.59523745,-1
0,1899,0.53274663,-1
0,1900,0.60443758,-1
0,1901,0.68789901,-1
0,1902,0.54608739,-1
0,1903,0.58014005,-1
0,1904,0.94054621,-1
0,1905,1.0174775,-1
0,1906,0.88870856,-1
0,1907,1.0290469,-1
0,1908,1.0391371,-1
0,1909,0.77887393,-1
0,1910,0.7795607,-1
0,1911,0.85121082,-1
0,1912,0.65955611,-1
0,1913,0.6312745,-1
0,1914,0.83081463,-1
0,1915,0.82709376,-1
0,1916,0.73991266,-1
0,1917,0.82409383,-1
0,1918,0.80693862,-1
0,1919,0.49505124,-1
0,1920,-0.36808017,1
0,1921,-0.62198358,1
0,1922,-0.60141727,1
0,1923,-0.62828928,1
0,1924,-0.61144343,1
0,1925,-0.39257197,1
0,1926,-0.32274168,1
0,1927,-0.57911647,1
0,1928,-0.89648815,1
0,1929,-0.9948452,1
0,1930,-0.81096441,1
0,1931,-0.74245493,1
0,1932,-1.0150701,1
0,1933,-1.0731354,1
0,1934,-0.85638102,1
0,1935,-1.0930954,1
0,1936,-1.5145011,1
0,1937,-1.3941725,1
0,1938,-1.1909184,1
0,1939,-1.5410888,1
0,1940,-1.8866602,1
0,1941,-1.7607609,1
0,1942,-1.916579,1
0,1943,-2.0768171,1
0,1944,-1.7355405,1
0,1945,-1.918453,1
0,1946,-2.1974395,1
0,1947,-1.7578711,1
0,1948,-1.5190403,1
0,1949,-1.585452,1
0,1950,-1.3944578,1
0,1951,-1.003315,1
0,1952,-0.6906748,1
0,1953,-0.48888243,1
0,1954,-0.11740004,1
0,1955,0.25205028,1
0,1956,0.153349,1
0,1957,0.13985183,1
0,1958,0.55046178,1
0,1959,0.54731812,1
0,1960,0.31909548,1
0,1961,0.50850911,1
0,1962,0.62449724,1
0,1963,0.59734396,1
0,1964,0.61482105,1
0,1965,0.47970538,1
0,1966,0.46921327,1
0,1967,0.63920536,1
0,1968,0.49066668,1
0,1969,0.3388896,1
0,1970,0.51168528,1
0,1971,0.58297709,1
0,1972,0.50136524,1
0,1973,0.44552905,1
0,1974,0.49031067,1
0,1975,0.57064332,1
0,1976,0.54944186,1
0,1977,0.6226834,1
0,1978,0.70378381,1
0,1979,0.70743103,1
0,1980,0.83658141,1
0,1981,0.97671097,1
0,1982,1.0447076,1
0,1983,1.1005165,1
0,1984,1.1871488,1
0,1985,1.2850059,1
0,1986,1.2504146,1
0,1987,1.1659265,1
0,1988,1.0236343,1
0,1989,0.81085304,1
0,1990,0.69145775,1
0,1991,0.56948125,1
0,1992,0.58941742,1
0,1993,0.70348381,1
0,1994,0.68204818,1
0,1995,0.59810378,1
0,1996,0.23660011,1
0,1997,0.11398171,1
0,1998,0.39492419,1
0,1999,0.34853846,1
0,2000,0.38970864,1
0,2001,0.45654441,1
0,2002,0.15365625,1
0,2003,0.18117864,1
0,2004,0.36646374,1
0,2005,0.29835318,1
0,2006,0.55686438,1
0,2007,0.96894031,1
0,2008,1.3547533,1
0,2009,2.1901509,1
0,2010,2.4654772,1
0,2011,1.646662,1
0,2012,0.92194246,1
0,2013,0.27019593,1
0,2014,-0.49064016,1
0,2015,-0.45251328,1
0,2016,0.08725314,1
0,2017,1.2520477,1
0,2018,1.9706734,1
0,2019,1.7369054,1
0,2020,1.3942079,1
0,2021,-0.28091459,1
0,2022,-0.36111772,1
0,2023,0.82250354,1
0,2024,0.057914995,1
0,2025,0.019468541,1
0,2026,0.2184925,1
0,2027,-0.68816176,1
0,2028,-0.93545714,1
0,2029,-0.99010877,1
0,2030,-1.0866248,1
0,2031,-1.1528112,1
0,2032,-1.2421486,1
0,2033,-1.2978639,1
0,2034,-1.3145734,1
0,2035,-1.3549397,1
0,2036,-1.4753261,1
0,2037,-1.4923176,1
0,2038,-1.5284035,1
0,2039,-1.6943233,1
0,2040,-1.7820547,1
0,2041,-1.7944331,1
0,2042,-1.8747797,1
0,2043,-2.0250171,1
0,2044,-2.011048,1
0,2045,-2.0139477,1
0,2046,-2.1668307,1
0,2047,-2.0968878,1
0,2048,-1.8472235,1
0,2049,-1.7563754,1
0,2050,-1.5338703,1
0,2051,-1.144208,1
0,2052,-0.80359528,1
0,2053,-0.43019413,1
0,2054,-0.12211469,1
0,2055,0.18942908,1
0,2056,0.4492385,1
0,2057,0.51023832,1
0,2058,0.64912288,1
0,2059,0.74644297,1
0,2060,0.65568343,1
0,2061,0.58777003,1
0,2062,0.60879144,1
0,2063,0.66036694,1
0,2064,0.42151345,1
0,2065,0.42654404,1
0,2066,0.60489586,1
0,2067,0.52182373,1
0,2068,0.5714113,1
0,2069,0.58367184,1
0,2070,0.57611727,1
0,2071,0.58776723,1
0,2072,0.63383532,1
0,2073,0.58023172,1
0,2074,0.49449989,1
0,2075,0.45595736,1
0,2076,0.54473783,1
0,2077,0.52592434,1
0,2078,0.38214582,1
0,2079,0.43976674,1
0,2080,0.52711614,1
0,2081,0.50140767,1
0,2082,0.41953567,1
0,2083,0.38130368,1
0,2084,0.42180031,1
0,2085,0.38075815,1
0,2086,0.44102916,1
0,2087,0.55042779,1
0,2088,0.46371421,1
0,2089,0.42800741,1
0,2090,0.72512227,1
0,2091,0.86005159,1
0,2092,1.008694,1
0,2093,1.0243868,1
0,2094,0.86485997,1
0,2095,0.87815173,1
0,2096,0.69027609,1
0,2097,0.63679502,1
0,2098,0.70271127,1
0,2099,0.55505912,1
0,2100,0.34563621,1
0,2101,0.55502419,1
0,2102,0.74035298,1
0,2103,0.44952291,1
0,2104,0.47831376,1
0,2105,0.56835381,1
0,2106,0.65437888,1
0,2107,0.53082438,1
0,2108,0.64064978,1
0,2109,0.73917852,1
0,2110,0.51967381,1
0,2111,0.64716018,1
0,2112,0.47041178,1
0,2113,1.1748488,1
0,2114,2.2214786,1
0,2115,3.9038609,1
0,2116,2.7879987,1
0,2117,1.0087323,1
0,2118,-0.58596686,1
0,2119,-1.114817,1
0,2120,-0.12519509,1
0,2121,0.11704067,1
0,2122,0.20179858,1
0,2123,-0.38598629,1
0,2124,-0.20846672,1
0,2125,0.25844822,1
0,2126,-0.29346312,1
0,2127,-0.10047724,1
0,2128,-0.44661919,1
0,2129,-0.94101217,1
0,2130,-0.71326638,1
0,2131,-0.80758438,1
0,2132,-0.95976323,1
0,2133,-1.0230287,1
0,2134,-1.2076556,1
0,2135,-1.2410564,1
0,2136,-1.3355131,1
0,2137,-1.5213725,1
0,2138,-1.5576032,1
0,2139,-1.5766115,1
0,2140,-1.7348497,1
0,2141,-1.9569032,1
0,2142,-1.7295609,1
0,2143,-2.0988834,1
0,2144,-1.7148509,1
0,2145,-1.7751271,1
0,2146,-1.6744488,1
0,2147,-1.3307911,1
0,2148,-1.2737656,1
0,2149,-0.66548051,1
0,2150,-0.69212143,1
0,2151,-0.25276116,1
0,2152,0.077724652,1
0,2153,0.04161385,1
0,2154,0.47523099,1
0,2155,0.80391968,1
0,2156,0.91850262,1
0,2157,1.1074806,1
0,2158,0.77580526,1
0,2159,1.052794,1
0,2160,1.0120119,1
0,2161,0.72443783,1
0,2162,0.95483584,1
0,2163,0.63820354,1
0,2164,0.80321316,1
0,2165,0.80865492,1
0,2166,0.35048747,1
0,2167,0.59308132,1
0,2168,0.81393851,1
0,2169,0.63892725,1
0,2170,0.46192926,1
0,2171,1.3950243,1
0,2172,0.24079772,1
0,2173,0.058935948,1
0,2174,0.80172289,1
0,2175,0.060674966,1
0,2176,0.56301153,1
0,2177,0.38523352,1
0,2178,0.10923447,1
0,2179,0.47034604,1
0,2180,0.16641582,1
0,2181,0.18778965,1
0,2182,0.43108177,1
0,2183,0.3340818,1
0,2184,0.30683461,1
0,2185,0.80995113,1
0,2186,1.1522226,1
0,2187,0.5408318,1
0,2188,0.90570745,1
0,2189,0.73703156,1
0,2190,0.055853564,1
0,2191,0.20591019,1
0,2192,-0.015736798,1
0,2193,0.090974722,1
0,2194,-0.22159296,1
0,2195,-0.2804552,1
0,2196,-0.44835145,1
0,2197,-0.04101777,1
0,2198,0.037214251,1
0,2199,-0.19196349,1
0,2200,-0.33125672,1
0,2201,-0.05707169,1
0,2202,-0.044218663,1
0,2203,-0.21300695,1
0,2204,-0.14713871,1
0,2205,-0.14602941,1
0,2206,0.086343138,1
0,2207,-0.14779453,1
0,2208,1.3510633,-1
0,2209,2.8253475,-1
0,2210,2.6405387,-1
0,2211,1.2185972,-1
0,2212,-0.056741817,-1
0,2213,1.1969525,-1
0,2214,0.72468158,-1
0,2215,0.96665163,-1
0,2216,0.54982412,-1
0,2217,-0.98860325,-1
0,2218,-1.0896612,-1
0,2219,-1.3796467,-1
0,2220,-1.4933006,-1
0,2221,-1.5358864,-1
0,2222,-1.6085794,-1
0,2223,-1.7979364,-1
0,2224,-1.8713879,-1
0,2225,-1.8084146,-1
0,2226,-1.9634411,-1
0,2227,-1.8674521,-1
0,2228,-1.9725184,-1
0,2229,-1.974003,-1
0,2230,-1.8118577,-1
0,2231,-1.7760929,-1
0,2232,-1.6584819,-1
0,2233,-1.5790928,-1
0,2234,-1.2089554,-1
0,2235,-0.95651798,-1
0,2236,-0.57893192,-1
0,2237,0.0091407399,-1
0,2238,0.41393379,-1
0,2239,0.79693596,-1
0,2240,1.1532698,-1
0,2241,1.3466296,-1
0,2242,1.5805981,-1
0,2243,1.6579084,-1
0,2244,1.5706004,-1
0,2245,1.4357052,-1
0,2246,1.3710045,-1
0,2247,1.1873345,-1
0,2248,0.97515895,-1
0,2249,0.90662467,-1
0,2250,0.80631102,-1
0,2251,0.79696583,-1
0,2252,0.60693675,-1
0,2253,0.64409607,-1
0,2254,0.43638846,-1
0,2255,0.4173406,-1
0,2256,0.39732821,-1
0,2257,0.27774806,-1
0,2258,0.3563615,-1
0,2259,0.22353753,-1
0,2260,0.218878,-1
0,2261,0.21645073,-1
0,2262,0.22628126,-1
0,2263,0.051749369,-1
0,2264,0.057490234,-1
0,2265,0.14059423,-1
0,2266,0.0081304607,-1
0,2267,-0.013382516,-1
0,2268,0.042685178,-1
0,2269,0.062064605,-1
0,2270,-0.057979348,-1
0,2271,-0.05566184,-1
0,2272,0.062631029,-1
0,2273,-0.15101682,-1
0,2274,0.016422729,-1
0,2275,0.032865136,-1
0,2276,-0.14212168,-1
0,2277,-0.043954713,-1
0,2278,0.0019502207,-1
0,2279,-0.023239864,-1
0,2280,-0.043992575,-1
0,2281,0.028251186,-1
0,2282,-0.037340248,-1
0,2283,-0.011156313,-1
0,2284,0.0041186808,-1
0,2285,0.0062360765,-1
0,2286,0.22729099,-1
0,2287,0.37901905,-1
0,2288,0.40506216,-1
0,2289,0.19951882,-1
0,2290,0.29168416,-1
0,2291,-0.027799432,-1
0,2292,-0.19868525,-1
0,2293,-0.17073811,-1
0,2294,-0.28446251,-1
0,2295,-0.15061437,-1
0,2296,-0.26200415,-1
0,2297,-0.22242406,-1
0,2298,-0.27178308,-1
0,2299,-0.065167955,-1
0,2300,-0.15399404,-1
0,2301,-0.099545425,-1
0,2302,-0.072254718,-1
0,2303,0.015932976,-1
0,2304,0.47527619,1
0,2305,1.3431131,1
0,2306,2.7848317,1
0,2307,2.8877708,1
0,2308,1.5500174,1
0,2309,-0.40538954,1
0,2310,-0.02436819,1
0,2311,1.0565722,1
0,2312,0.76472116,1
0,2313,1.0003107,1
0,2314,0.61892367,1
0,2315,-0.26310215,1
0,2316,-0.57270577,1
0,2317,-0.68380925,1
0,2318,-0.85528617,1
0,2319,-0.87181822,1
0,2320,-0.97463085,1
0,2321,-1.0680316,1
0,2322,-1.0048411,1
0,2323,-1.1564903,1
0,2324,-1.2206934,1
0,2325,-1.3067336,1
0,2326,-1.4448952,1
0,2327,-1.4511084,1
0,2328,-1.662704,1
0,2329,-1.7535886,1
0,2330,-1.75575,1
0,2331,-1.9270272,1
0,2332,-2.0732827,1
0,2333,-2.1304679,1
0,2334,-2.1625923,1
0,2335,-2.1702212,1
0,2336,-2.0143108,1
0,2337,-1.7348827,1
0,2338,-1.4720145,1
0,2339,-1.1195179,1
0,2340,-0.67855046,1
0,2341,-0.24605327,1
0,2342,0.17242743,1
0,2343,0.48751637,1
0,2344,0.72219379,1
0,2345,0.87896307,1
0,2346,0.85769667,1
0,2347,0.89469716,1
0,2348,0.93045816,1
0,2349,0.74775761,1
0,2350,0.67615078,1
0,2351,0.71573034,1
0,2352,0.69377634,1
0,2353,0.65056269,1
0,2354,0.65600825,1
0,2355,0.69737415,1
0,2356,0.72206868,1
0,2357,0.74480756,1
0,2358,0.6891006,1
0,2359,0.68170334,1
0,2360,0.70529202,1
0,2361,0.67208974,1
0,2362,0.66611669,1
0,2363,0.60662528,1
0,2364,0.68661784,1
0,2365,0.53906457,1
0,2366,0.47444208,1
0,2367,0.55984467,1
0,2368,0.41716552,1
0,2369,0.43372555,1
0,2370,0.4007906,1
0,2371,0.32196062,1
0,2372,0.34978547,1
0,2373,0.33543097,1
0,2374,0.22770578,1
0,2375,0.19367019,1
0,2376,0.22742227,1
0,2377,0.17551903,1
0,2378,0.34750821,1
0,2379,0.61978171,1
0,2380,0.67846578,1
0,2381,0.56769143,1
0,2382,0.45223543,1
0,2383,0.3966564,1
0,2384,0.21912562,1
0,2385,0.042417516,1
0,2386,0.0088995724,1
0,2387,0.03596579,1
0,2388,-0.062248542,1
0,2389,-0.099531844,1
0,2390,0.04216042,1
0,2391,-0.051857131,1
0,2392,-0.067828242,1
0,2393,0.010169754,1
0,2394,-0.019263554,1
0,2395,-0.057951543,1
0,2396,-0.077762082,1
0,2397,0.07563837,1
0,2398,0.080578491,1
0,2399,-0.029783082,1
0,2400,0.6692266,1
0,2401,0.64016336,1
0,2402,0.33815791,1
0,2403,0.28531081,1
0,2404,-0.13126681,1
0,2405,-0.28827394,1
0,2406,-0.33789631,1
0,2407,-0.77754625,1
0,2408,-0.72411581,1
0,2409,-0.70891127,1
0,2410,-0.90083177,1
0,2411,-0.92681631,1
0,2412,-1.206166,1
0,2413,-1.2043277,1
0,2414,-1.2900816,1
0,2415,-1.4926257,1
0,2416,-1.4695423,1
0,2417,-1.6202575,1
0,2418,-1.9641802,1
0,2419,-2.140537,1
0,2420,-2.2355785,1
0,2421,-2.1912348,1
0,2422,-2.4190612,1
0,2423,-2.3833501,1
0,2424,-2.3352814,1
0,2425,-2.4091296,1
0,2426,-1.7280794,1
0,2427,-1.508118,1
0,2428,-1.1367001,1
0,2429,-0.59679096,1
0,2430,-0.42528446,1
0,2431,0.049137167,1
0,2432,0.33933537,1
0,2433,0.5951183,1
0,2434,0.81456139,1
0,2435,0.51347237,1
0,2436,0.7409389,1
0,2437,0.82628155,1
0,2438,0.52163904,1
0,2439,0.69541518,1
0,2440,0.64173935,1
0,2441,0.5767863,1
0,2442,0.58165316,1
0,2443,0.6270132,1
0,2444,0.64005163,1
0,2445,0.63360328,1
0,2446,0.45195683,1
0,2447,0.75507765,1
0,2448,0.64087958,1
0,2449,0.5253825,1
0,2450,0.66578504,1
0,2451,0.42517263,1
0,2452,0.56961246,1
0,2453,0.63776834,1
0,2454,0.45642456,1
0,2455,0.18157832,1
0,2456,0.47894905,1
0,2457,0.46425351,1
0,2458,0.37112865,1
0,2459,0.57090088,1
0,2460,0.15882532,1
0,2461,0.5223865,1
0,2462,0.56684164,1
0,2463,0.061079969,1
0,2464,0.47445439,1
0,2465,0.34933249,1
0,2466,0.2423789,1
0,2467,0.60357026,1
0,2468,0.61054679,1
0,2469,0.78138735,1
0,2470,1.0117046,1
0,2471,0.57541476,1
0,2472,0.33857279,1
0,2473,0.6034177,1
0,2474,0.2955411,1
0,2475,0.21154464,1
0,2476,0.41840097,1
0,2477,0.088503418,1
0,2478,0.18171743,1
0,2479,0.33434729,1
0,2480,0.027673647,1
0,2481,0.29401312,1
0,2482,0.32948968,1
0,2483,-0.03062947,1
0,2484,0.38243103,1
0,2485,0.22032801,1
0,2486,0.21024644,1
0,2487,0.15923002,1
0,2488,0.27205537,1
0,2489,0.41075926,1
0,2490,1.0621578,1
0,2491,2.5427672,1
0,2492,2.1921942,1
0,2493,1.5474987,1
0,2494,0.90299398,1
0,2495,-0.32566723,1
0,2496,1.1949282,1
0,2497,2.1907971,1
0,2498,2.4432745,1
0,2499,2.0007909,1
0,2500,1.0049886,1
0,2501,0.18298559,1
0,2502,0.84161448,1
0,2503,1.3158619,1
0,2504,1.0808092,1
0,2505,1.348972,1
0,2506,1.147414,1
0,2507,0.31794044,1
0,2508,-0.39567572,1
0,2509,-0.52295339,1
0,2510,-0.58800575,1
0,2511,-0.73068718,1
0,2512,-0.8104488,1
0,2513,-0.89688854,1
0,2514,-0.96893386,1
0,2515,-1.1616738,1
0,2516,-1.2225131,1
0,2517,-1.2840793,1
0,2518,-1.4718455,1
0,2519,-1.661311,1
0,2520,-1.9441719,1
0,2521,-2.039104,1
0,2522,-2.1801167,1
0,2523,-2.4142204,1
0,2524,-2.4477675,1
0,2525,-2.4448851,1
0,2526,-2.2974206,1
0,2527,-2.1031254,1
0,2528,-1.8770823,1
0,2529,-1.5394675,1
0,2530,-1.1415042,1
0,2531,-0.81260151,1
0,2532,-0.49507519,1
0,2533,-0.17519287,1
0,2534,0.07494074,1
0,2535,0.30021044,1
0,2536,0.40394604,1
0,2537,0.46492757,1
0,2538,0.50599689,1
0,2539,0.57274747,1
0,2540,0.51675065,1
0,2541,0.51725614,1
0,2542,0.51176246,1
0,2543,0.44605113,1
0,2544,0.46327016,1
0,2545,0.47779571,1
0,2546,0.50613804,1
0,2547,0.52307572,1
0,2548,0.49089689,1
0,2549,0.55358738,1
0,2550,0.57940421,1
0,2551,0.5108784,1
0,2552,0.57680163,1
0,2553,0.55857759,1
0,2554,0.54380342,1
0,2555,0.54597403,1
0,2556,0.45310459,1
0,2557,0.47026043,1
0,2558,0.51533453,1
0,2559,0.39092365,1
0,2560,0.40203223,1
0,2561,0.39944293,1
0,2562,0.33478044,1
0,2563,0.39259157,1
0,2564,0.28207243,1
0,2565,0.31198979,1
0,2566,0.34734552,1
0,2567,0.35167915,1
0,2568,0.51548996,1
0,2569,0.60228285,1
0,2570,0.65119116,1
0,2571,0.63261702,1
0,2572,0.4099852,1
0,2573,0.36886411,1
0,2574,0.31356913,1
0,2575,0.13937583,1
0,2576,0.093670719,1
0,2577,0.077365223,1
0,2578,0.12533221,1
0,2579,0.060442159,1
0,2580,0.083074091,1
0,2581,0.054984777,1
0,2582,0.061965212,1
0,2583,0.086669753,1
0,2584,0.065612145,1
0,2585,0.0032298112,1
0,2586,0.10953369,1
0,2587,0.060000817,1
0,2588,0.040453145,1
0,2589,0.069218255,1
0,2590,0.17855007,1
0,2591,0.45654674,1
0,2592,0.20303954,-1
0,2593,0.4620785,-1
0,2594,0.74836772,-1
0,2595,0.99695917,-1
0,2596,0.99855221,-1
0,2597,0.84949403,-1
0,2598,0.87570482,-1
0,2599,1.0092909,-1
0,2600,0.80806681,-1
0,2601,0.16128675,-1
0,2602,-0.41905794,-1
0,2603,-0.45015898,-1
0,2604,-0.21226069,-1
0,2605,-0.33518908,-1
0,2606,-0.74453609,-1
0,2607,-0.84187552,-1
0,2608,-0.59821278,-1
0,2609,-0.46744349,-1
0,2610,-0.54607648,-1
0,2611,-0.69481032,-1
0,2612,-0.85633856,-1
0,2613,-0.90661027,-1
0,2614,-0.85141067,-1
0,2615,-0.7671981,-1
0,2616,-0.50010025,-1
0,2617,-0.2679663,-1
0,2618,-0.61161333,-1
0,2619,-1.1419276,-1
0,2620,-1.1068337,-1
0,2621,-0.91681409,-1
0,2622,-1.1133568,-1
0,2623,-1.1243013,-1
0,2624,-0.63091696,-1
0,2625,-0.41757296,-1
0,2626,-0.83858138,-1
0,2627,-1.1334201,-1
0,2628,-0.92595138,-1
0,2629,-0.8273845,-1
0,2630,-1.096835,-1
0,2631,-1.2912432,-1
0,2632,-1.383113,-1
0,2633,-1.6018684,-1
0,2634,-1.6551462,-1
0,2635,-1.4481861,-1
0,2636,-1.4093576,-1
0,2637,-1.5045071,-1
0,2638,-1.3606741,-1
0,2639,-1.1107051,-1
0,2640,-0.9906629,-1
0,2641,-0.86473975,-1
0,2642,-0.66534071,-1
0,2643,-0.53173869,-1
0,2644,-0.4564117,-1
0,2645,-0.29351677,-1
0,2646,-0.048334569,-1
0,2647,0.1432135,-1
0,2648,0.2684479,-1
0,2649,0.37448588,-1
0,2650,0.43712032,-1
0,2651,0.52029813,-1
0,2652,0.64595463,-1
0,2653,0.62296152,-1
0,2654,0.47560443,-1
0,2655,0.46532114,-1
0,2656,0.51372922,-1
0,2657,0.43557245,-1
0,2658,0.41166962,-1
0,2659,0.50660284,-1
0,2660,0.4346806,-1
0,2661,0.21509747,-1
0,2662,0.2123013,-1
0,2663,0.38697442,-1
0,2664,0.33385625,-1
0,2665,0.11874715,-1
0,2666,0.19977383,-1
0,2667,0.47825397,-1
0,2668,0.52159962,-1
0,2669,0.41185944,-1
0,2670,0.33925708,-1
0,2671,0.2328307,-1
0,2672,0.25209581,-1
0,2673,0.43315453,-1
0,2674,0.35764047,-1
0,2675,0.17873833,-1
0,2676,0.37737192,-1
0,2677,0.5720518,-1
0,2678,0.49869164,-1
0,2679,0.74312635,-1
0,2680,1.3640378,-1
0,2681,1.9802452,-1
0,2682,2.7125249,-1
0,2683,3.2698816,-1
0,2684,3.070404,-1
0,2685,2.5160159,-1
0,2686,1.9308803,-1
0,2687,0.88438617,-1
0,2688,0.46679299,1
0,2689,0.50362537,1
0,2690,0.78866915,1
0,2691,0.2229358,1
0,2692,0.53730356,1
0,2693,0.04355325,1
0,2694,-0.26114082,1
0,2695,0.80315578,1
0,2696,-0.1395228,1
0,2697,-0.61216233,1
0,2698,-0.32442077,1
0,2699,-0.16721713,1
0,2700,-0.21054138,1
0,2701,-0.95789518,1
0,2702,-0.096172781,1
0,2703,-0.31173137,1
0,2704,-0.74357761,1
0,2705,-0.87320425,1
0,2706,-1.0822995,1
0,2707,-0.63932937,1
0,2708,-1.4214385,1
0,2709,-1.884789,1
0,2710,-0.75447711,1
0,2711,-1.2973123,1
0,2712,-2.540979,1
0,2713,-2.3123259,1
0,2714,-2.0156218,1
0,2715,-2.2682195,1
0,2716,-2.6171746,1
0,2717,-2.4110906,1
0,2718,-2.1820322,1
0,2719,-2.1904259,1
0,2720,-2.1644801,1
0,2721,-1.7266159,1
0,2722,-1.1703102,1
0,2723,-1.2692843,1
0,2724,-1.1404064,1
0,2725,-0.22604982,1
0,2726,0.29834944,1
0,2727,0.22685559,1
0,2728,0.39090723,1
0,2729,0.71562147,1
0,2730,0.77004117,1
0,2731,0.86562574,1
0,2732,1.0802876,1
0,2733,1.0445707,1
0,2734,0.70439676,1
0,2735,0.84998655,1
0,2736,1.2178231,1
0,2737,0.76010925,1
0,2738,0.46583469,1
0,2739,0.91208319,1
0,2740,0.93517011,1
0,2741,0.63411733,1
0,2742,0.59564138,1
0,2743,0.70628078,1
0,2744,0.91283177,1
0,2745,0.82767998,1
0,2746,0.61224018,1
0,2747,0.9540478,1
0,2748,0.97561273,1
0,2749,0.62999832,1
0,2750,0.53994467,1
0,2751,0.4817332,1
0,2752,0.6609393,1
0,2753,0.78531361,1
0,2754,0.82605179,1
0,2755,0.64012639,1
0,2756,0.27749628,1
0,2757,0.50911507,1
0,2758,0.69916736,1
0,2759,0.74421755,1
0,2760,0.033625115,1
0,2761,0.47069981,1
0,2762,0.77461005,1
0,2763,0.27925622,1
0,2764,0.44518242,1
0,2765,0.18205782,1
0,2766,0.68915684,1
0,2767,0.62440027,1
0,2768,-0.097793865,1
0,2769,0.49746032,1
0,2770,0.34999828,1
0,2771,0.34933738,1
0,2772,0.32493302,1
0,2773,0.59795569,1
0,2774,1.0019739,1
0,2775,0.67440973,1
0,2776,0.73932393,1
0,2777,0.54086328,1
0,2778,0.34583422,1
0,2779,0.7777283,1
0,2780,0.2481278,1
0,2781,0.0042834999,1
0,2782,0.42519351,1
0,2783,0.11737688,1
0,2784,0.15058441,1
0,2785,1.656594,1
0,2786,2.7067667,1
0,2787,2.6687049,1
0,2788,2.1616487,1
0,2789,0.45358164,1
0,2790,-1.1248073,1
0,2791,-0.035755804,1
0,2792,0.71933982,1
0,2793,0.16920057,1
0,2794,0.52592483,1
0,2795,0.64460189,1
0,2796,-0.032198206,1
0,2797,-0.65313136,1
0,2798,-0.64744008,1
0,2799,-0.99854648,1
0,2800,-0.98739107,1
0,2801,-1.2347709,1
0,2802,-1.1688943,1
0,2803,-1.132583,1
0,2804,-1.2814418,1
0,2805,-1.2022795,1
0,2806,-1.3473458,1
0,2807,-1.4705966,1
0,2808,-1.6609084,1
0,2809,-1.7332526,1
0,2810,-1.6761992,1
0,2811,-1.7228702,1
0,2812,-1.9567843,1
0,2813,-2.0945013,1
0,2814,-1.9965956,1
0,2815,-1.8874305,1
0,2816,-1.9523265,1
0,2817,-1.5933899,1
0,2818,-1.4014487,1
0,2819,-1.3560129,1
0,2820,-0.95886457,1
0,2821,-0.48330417,1
0,2822,-0.044625343,1
0,2823,0.13144175,1
0,2824,0.34893485,1
0,2825,0.65345523,1
0,2826,0.92827746,1
0,2827,0.90349566,1
0,2828,0.97048627,1
0,2829,1.0221354,1
0,2830,1.0770498,1
0,2831,0.97306995,1
0,2832,0.92998056,1
0,2833,0.84903207,1
0,2834,0.76882158,1
0,2835,0.75621834,1
0,2836,0.65609937,1
0,2837,0.81248661,1
0,2838,0.724854,1
0,2839,0.60643634,1
0,2840,0.53883091,1
0,2841,0.59598285,1
0,2842,0.76608981,1
0,2843,0.65196068,1
0,2844,0.58152192,1
0,2845,0.50954751,1
0,2846,0.61452675,1
0,2847,0.68880188,1
0,2848,0.39052644,1
0,2849,0.30701265,1
0,2850,0.33509223,1
0,2851,0.42430212,1
0,2852,0.36649593,1
0,2853,0.16733544,1
0,2854,0.41284926,1
0,2855,0.53834086,1
0,2856,0.37945446,1
0,2857,0.54479634,1
0,2858,0.75413877,1
0,2859,0.71926784,1
0,2860,0.50206206,1
0,2861,0.30988251,1
0,2862,0.24499447,1
0,2863,0.1870624,1
0,2864,0.022708647,1
0,2865,-0.19090177,1
0,2866,-0.089089718,1
0,2867,-0.035984174,1
0,2868,-0.13561674,1
0,2869,0.03892077,1
0,2870,-0.11521328,1
0,2871,-0.22757884,1
0,2872,-0.12842996,1
0,2873,-0.1619318,1
0,2874,-0.014223368,1
0,2875,-0.1007102,1
0,2876,0.10191216,1
0,2877,0.012287898,1
0,2878,-0.104105,1
0,2879,0.46355293,1
0,2880,-0.15738917,1
0,2881,0.73698093,1
0,2882,2.4996379,1
0,2883,3.0521245,1
0,2884,1.6280319,1
0,2885,-0.36093506,1
0,2886,-1.2269598,1
0,2887,-0.0902894,1
0,2888,0.46134368,1
0,2889,0.26394649,1
0,2890,0.37287578,1
0,2891,0.1095486,1
0,2892,-0.61703345,1
0,2893,-1.2405919,1
0,2894,-0.63759698,1
0,2895,-1.1867339,1
0,2896,-1.1788481,1
0,2897,-1.3021618,1
0,2898,-0.99205735,1
0,2899,-1.004383,1
0,2900,-1.2935122,1
0,2901,-1.4486697,1
0,2902,-1.7158839,1
0,2903,-1.4317256,1
0,2904,-1.4990846,1
0,2905,-1.5586424,1
0,2906,-1.85676,1
0,2907,-2.0150859,1
0,2908,-1.7349102,1
0,2909,-1.6264839,1
0,2910,-1.9218907,1
0,2911,-2.0577809,1
0,2912,-1.6867679,1
0,2913,-1.4645761,1
0,2914,-1.3867518,1
0,2915,-1.1050826,1
0,2916,-0.60325177,1
0,2917,-0.28381611,1
0,2918,0.01852978,1
0,2919,0.30979707,1
0,2920,0.61014797,1
0,2921,1.1890136,1
0,2922,0.89323066,1
0,2923,0.98472203,1
0,2924,1.200026,1
0,2925,1.136819,1
0,2926,1.1377805,1
0,2927,1.1240111,1
0,2928,1.0165527,1
0,2929,0.95049934,1
0,2930,1.0063636,1
0,2931,0.89310823,1
0,2932,0.65362024,1
0,2933,0.88646385,1
0,2934,0.94861722,1
0,2935,0.5431492,1
0,2936,0.85479621,1
0,2937,0.44309256,1
0,2938,0.35907526,1
0,2939,1.0432701,1
0,2940,0.82765915,1
0,2941,0.29922593,1
0,2942,0.49136903,1
0,2943,0.62283443,1
0,2944,0.24474693,1
0,2945,0.51545871,1
0,2946,0.50933115,1
0,2947,0.25763912,1
0,2948,0.54448365,1
0,2949,0.10467057,1
0,2950,0.30478711,1
0,2951,0.29124101,1
0,2952,0.06150538,1
0,2953,0.48883963,1
0,2954,0.48156552,1
0,2955,0.76400489,1
0,2956,0.57885921,1
0,2957,0.65465996,1
0,2958,0.57880072,1
0,2959,-0.057641124,1
0,2960,0.338954,1
0,2961,0.1320958,1
0,2962,0.076898761,1
0,2963,-0.058980391,1
0,2964,-0.076748768,1
0,2965,-0.022102371,1
0,2966,-0.16132255,1
0,2967,0.06865574,1
0,2968,0.1921494,1
0,2969,-0.051263559,1
0,2970,0.068644092,1
0,2971,-0.017255661,1
0,2972,0.016510036,1
0,2973,0.1490497,1
0,2974,-0.026306049,1
0,2975,0.16546113,1
0,2976,0.65656714,1
0,2977,2.439455,1
0,2978,3.7686961,1
0,2979,2.5048154,1
0,2980,2.0810982,1
0,2981,0.58786769,1
0,2982,-1.0527939,1
0,2983,0.091880465,1
0,2984,0.99214593,1
0,2985,0.23873695,1
0,2986,0.20619455,1
0,2987,0.55427393,1
0,2988,-0.48057051,1
0,2989,-0.60856053,1
0,2990,-0.63123276,1
0,2991,-0.75097956,1
0,2992,-0.9105596,1
0,2993,-1.1746287,1
0,2994,-0.95275915,1
0,2995,-1.173999,1
0,2996,-1.2248547,1
0,2997,-1.0880795,1
0,2998,-1.3026384,1
0,2999,-1.3779335,1
0,3000,-1.587647,1
0,3001,-1.7171806,1
0,3002,-1.7041702,1
0,3003,-1.7736293,1
0,3004,-1.8051685,1
0,3005,-1.6335501,1
0,3006,-1.8505269,1
0,3007,-1.7669636,1
0,3008,-1.6500436,1
0,3009,-1.4334016,1
0,3010,-1.0455713,1
0,3011,-0.95910861,1
0,3012,-0.65108539,1
0,3013,-0.29491825,1
0,3014,0.085521008,1
0,3015,0.37741574,1
0,3016,0.46232903,1
0,3017,0.76958732,1
0,3018,0.90868507,1
0,3019,1.0654491,1
0,3020,1.0118724,1
0,3021,0.88326502,1
0,3022,1.1871739,1
0,3023,0.893563,1
0,3024,0.72847378,1
0,3025,0.94516327,1
0,3026,0.59859893,1
0,3027,0.55621742,1
0,3028,0.69009435,1
0,3029,0.62736479,1
0,3030,0.59536816,1
0,3031,0.56438527,1
0,3032,0.73411269,1
0,3033,0.63819072,1
0,3034,0.51245173,1
0,3035,0.6474743,1
0,3036,0.75772934,1
0,3037,0.3591961,1
0,3038,0.59307667,1
0,3039,0.57323765,1
0,3040,0.18039386,1
0,3041,0.54497909,1
0,3042,0.33009122,1
0,3043,0.26131178,1
0,3044,0.34823146,1
0,3045,0.15802124,1
0,3046,0.20835002,1
0,3047,0.14473466,1
0,3048,0.30454222,1
0,3049,0.57923734,1
0,3050,0.58702684,1
0,3051,0.42327712,1
0,3052,0.67516352,1
0,3053,0.32828563,1
0,3054,-0.096943569,1
0,3055,0.044244043,1
0,3056,-0.12724098,1
0,3057,-0.11493543,1
0,3058,-0.28178372,1
0,3059,-0.14773509,1
0,3060,-0.2858337,1
0,3061,7.0280533e-05,1
0,3062,-0.39000289,1
0,3063,-0.47257244,1
0,3064,-0.10795655,1
0,3065,-0.42759193,1
0,3066,-0.37007859,1
0,3067,-0.35622477,1
0,3068,-0.42782566,1
0,3069,-0.37963448,1
0,3070,-0.3576884,1
0,3071,-0.059085421,1
0,3072,1.2571379,1
0,3073,2.7809697,1
0,3074,3.2871348,1
0,3075,2.700352,1
0,3076,0.86951154,1
0,3077,0.75423951,1
0,3078,1.5212668,1
0,3079,1.0206125,1
0,3080,1.0330029,1
0,3081,0.91998275,1
0,3082,0.0040308763,1
0,3083,-0.4328252,1
0,3084,-0.43523685,1
0,3085,-0.64467814,1
0,3086,-0.80723278,1
0,3087,-0.78744574,1
0,3088,-0.89934918,1
0,3089,-0.99303352,1
0,3090,-1.1098699,1
0,3091,-1.1504357,1
0,3092,-1.2722753,1
0,3093,-1.3851092,1
0,3094,-1.4737069,1
0,3095,-1.5216449,1
0,3096,-1.6190877,1
0,3097,-1.8408816,1
0,3098,-1.7668947,1
0,3099,-1.9955843,1
0,3100,-2.1403108,1
0,3101,-1.9179246,1
0,3102,-1.9873367,1
0,3103,-1.8178444,1
0,3104,-1.7714289,1
0,3105,-1.4208218,1
0,3106,-0.99477631,1
0,3107,-0.73744766,1
0,3108,-0.36325566,1
0,3109,0.01113692,1
0,3110,0.3764232,1
0,3111,0.45803705,1
0,3112,0.68402413,1
0,3113,0.78140676,1
0,3114,0.80419809,1
0,3115,0.77813236,1
0,3116,0.8654643,1
0,3117,0.73073193,1
0,3118,0.5854085,1
0,3119,0.65586063,1
0,3120,0.60165239,1
0,3121,0.60567876,1
0,3122,0.53661635,1
0,3123,0.53257847,1
0,3124,0.6359821,1
0,3125,0.53099612,1
0,3126,0.55949644,1
0,3127,0.54941496,1
0,3128,0.50059776,1
0,3129,0.49216999,1
0,3130,0.42445282,1
0,3131,0.46236985,1
0,3132,0.33620966,1
0,3133,0.35603203,1
0,3134,0.43532801,1
0,3135,0.34044294,1
0,3136,0.28557744,1
0,3137,0.23317215,1
0,3138,0.31345426,1
0,3139,0.30001874,1
0,3140,0.17777537,1
0,3141,0.16156702,1
0,3142,0.22713739,1
0,3143,0.15108552,1
0,3144,0.12896749,1
0,3145,0.32105873,1
0,3146,0.55903857,1
0,3147,0.60961813,1
0,3148,0.54140162,1
0,3149,0.39574596,1
0,3150,0.21263311,1
0,3151,0.077601894,1
0,3152,0.062430149,1
0,3153,0.043606603,1
0,3154,-0.12017359,1
0,3155,-0.13750672,1
0,3156,-0.13823033,1
0,3157,-0.097822607,1
0,3158,-0.35762979,1
0,3159,-0.23568494,1
0,3160,-0.12330699,1
0,3161,-0.22417645,1
0,3162,-0.2264636,1
0,3163,-0.20708515,1
0,3164,-0.10117279,1
0,3165,-0.31391839,1
0,3166,-0.16804224,1
0,3167,0.15667789,1
0,3168,0.18824682,1
0,3169,0.54011861,1
0,3170,2.1784493,1
0,3171,3.4937688,1
0,3172,2.0753308,1
0,3173,1.2102543,1
0,3174,-0.26732577,1
0,3175,-0.86685963,1
0,3176,0.28339578,1
0,3177,0.40012091,1
0,3178,0.14208125,1
0,3179,0.092881754,1
0,3180,0.18240754,1
0,3181,-0.69088571,1
0,3182,-0.81472327,1
0,3183,-0.95037184,1
0,3184,-1.1110586,1
0,3185,-1.1942503,1
0,3186,-1.133374,1
0,3187,-1.1823912,1
0,3188,-1.2967505,1
0,3189,-1.3465192,1
0,3190,-1.4017603,1
0,3191,-1.5283034,1
0,3192,-1.675998,1
0,3193,-1.6817738,1
0,3194,-1.6940246,1
0,3195,-1.7275974,1
0,3196,-2.0750283,1
0,3197,-1.9526867,1
0,3198,-1.9090556,1
0,3199,-2.0473411,1
0,3200,-1.9649807,1
0,3201,-1.738151,1
0,3202,-1.3949086,1
0,3203,-1.3243972,1
0,3204,-0.82439899,1
0,3205,-0.31298538,1
0,3206,-0.1590169,1
0,3207,0.28844589,1
0,3208,0.48422411,1
0,3209,0.81593643,1
0,3210,0.93325722,1
0,3211,0.86988103,1
0,3212,1.0163635,1
0,3213,1.0748939,1
0,3214,0.98014325,1
0,3215,0.94649985,1
0,3216,0.85434159,1
0,3217,0.73572487,1
0,3218,0.7186939,1
0,3219,0.65853318,1
0,3220,0.68489,1
0,3221,0.70924256,1
0,3222,0.56570213,1
0,3223,0.55820413,1
0,3224,0.56666706,1
0,3225,0.58567217,1
0,3226,0.58357824,1
0,3227,0.4476914,1
0,3228,0.57826374,1
0,3229,0.52546581,1
0,3230,0.45305751,1
0,3231,0.47656667,1
0,3232,0.35518571,1
0,3233,0.45571947,1
0,3234,0.49012269,1
0,3235,0.38348068,1
0,3236,0.22396411,1
0,3237,0.3329755,1
0,3238,0.4131472,1
0,3239,0.10550942,1
0,3240,0.55240783,1
0,3241,0.79898319,1
0,3242,0.66881835,1
0,3243,0.8149307,1
0,3244,0.57742444,1
0,3245,0.44011513,1
0,3246,0.35085284,1
0,3247,0.18347025,1
0,3248,0.23293268,1
0,3249,0.14886325,1
0,3250,0.025794922,1
0,3251,-0.088937537,1
0,3252,0.1061531,1
0,3253,0.23085483,1
0,3254,0.078553916,1
0,3255,0.059380192,1
0,3256,0.0014209701,1
0,3257,0.041701978,1
0,3258,0.16332997,1
0,3259,-0.14498441,1
0,3260,-0.033069499,1
0,3261,0.22010903,1
0,3262,0.049480863,1
0,3263,0.12923039,1
0,3264,0.5347352,1
0,3265,1.1512282,1
0,3266,2.6653731,1
0,3267,4.1776046,1
0,3268,2.9168965,1
0,3269,1.478838,1
0,3270,0.13561963,1
0,3271,-0.63417895,1
0,3272,0.37588637,1
0,3273,0.90807948,1
0,3274,0.58484092,1
0,3275,0.27323378,1
0,3276,0.39029792,1
0,3277,0.088883087,1
0,3278,-0.3768425,1
0,3279,-0.51716061,1
0,3280,-0.68466891,1
0,3281,-0.75120423,1
0,3282,-0.83014081,1
0,3283,-0.728014,1
0,3284,-0.91878724,1
0,3285,-1.1869734,1
0,3286,-0.83873139,1
0,3287,-0.98957563,1
0,3288,-1.3974539,1
0,3289,-1.3020026,1
0,3290,-1.4222193,1
0,3291,-1.6337538,1
0,3292,-1.6511988,1
0,3293,-1.7824151,1
0,3294,-1.8822069,1
0,3295,-1.9508719,1
0,3296,-1.8055552,1
0,3297,-1.7426318,1
0,3298,-1.4715216,1
0,3299,-1.4031687,1
0,3300,-1.1494597,1
0,3301,-0.75586538,1
0,3302,-0.56482037,1
0,3303,0.058797055,1
0,3304,0.046509576,1
0,3305,0.045872935,1
0,3306,0.48199057,1
0,3307,0.775385,1
0,3308,0.56919094,1
0,3309,0.91358627,1
0,3310,0.95468886,1
0,3311,1.0054228,1
0,3312,1.0377656,1
0,3313,0.80607371,1
0,3314,0.85119391,1
0,3315,0.82394606,1
0,3316,0.7131084,1
0,3317,0.60449921,1
0,3318,0.72206738,1
0,3319,0.57987022,1
0,3320,0.52553238,1
0,3321,0.49672079,1
0,3322,0.62104462,1
0,3323,0.51059698,1
0,3324,0.64136035,1
0,3325,0.55110525,1
0,3326,0.33226855,1
0,3327,0.7730893,1
0,3328,0.36450658,1
0,3329,0.15511541,1
0,3330,0.60077751,1
0,3331,0.1159597,1
0,3332,-0.0052225825,1
0,3333,0.16481241,1
0,3334,0.048156636,1
0,3335,0.045531815,1
0,3336,0.066650703,1
0,3337,0.23052361,1
0,3338,0.60322751,1
0,3339,0.71238708,1
0,3340,0.49910405,1
0,3341,0.27300791,1
0,3342,0.1420472,1
0,3343,0.07157657,1
0,3344,0.055745476,1
0,3345,-0.14893827,1
0,3346,-0.320406,1
0,3347,-0.20320039,1
0,3348,-0.37650036,1
0,3349,-0.39701547,1
0,3350,-0.18855204,1
0,3351,-0.55104721,1
0,3352,-0.22708987,1
0,3353,-0.53982888,1
0,3354,-0.23207756,1
0,3355,0.10949861,1
0,3356,-0.68768556,1
0,3357,-0.31634669,1
0,3358,-0.43290016,1
0,3359,-0.38359833,1
0,3360,2.0412979,-1
0,3361,2.0215905,-1
0,3362,1.9258954,-1
0,3363,2.3343605,-1
0,3364,1.1738737,-1
0,3365,-0.45254768,-1
0,3366,-0.72808871,-1
0,3367,-0.97286861,-1
0,3368,-1.1330444,-1
0,3369,-1.3083921,-1
0,3370,-1.4269104,-1
0,3371,-1.3777995,-1
0,3372,-1.4946452,-1
0,3373,-1.6391585,-1
0,3374,-1.6507469,-1
0,3375,-1.63712,-1
0,3376,-1.7475462,-1
0,3377,-1.7957816,-1
0,3378,-1.8923593,-1
0,3379,-1.8622911,-1
0,3380,-2.0314748,-1
0,3381,-2.0181803,-1
0,3382,-1.8818739,-1
0,3383,-1.8788136,-1
0,3384,-1.7021406,-1
0,3385,-1.638922,-1
0,3386,-1.3705513,-1
0,3387,-1.074531,-1
0,3388,-0.77577882,-1
0,3389,-0.325801,-1
0,3390,0.10598077,-1
0,3391,0.41984097,-1
0,3392,0.55780729,-1
0,3393,0.66172383,-1
0,3394,0.74204524,-1
0,3395,0.7688022,-1
0,3396,0.88773093,-1
0,3397,0.93061314,-1
0,3398,0.89278808,-1
0,3399,0.82587454,-1
0,3400,0.71323405,-1
0,3401,0.63487012,-1
0,3402,0.58140712,-1
0,3403,0.55860979,-1
0,3404,0.51887426,-1
0,3405,0.54622788,-1
0,3406,0.46277437,-1
0,3407,0.38710092,-1
0,3408,0.49854746,-1
0,3409,0.45849862,-1
0,3410,0.38337416,-1
0,3411,0.4624378,-1
0,3412,0.52128288,-1
0,3413,0.54289555,-1
0,3414,0.70444864,-1
0,3415,0.81086868,-1
0,3416,0.84128969,-1
0,3417,0.85245267,-1
0,3418,0.69108352,-1
0,3419,0.74737044,-1
0,3420,0.7926625,-1
0,3421,0.82489155,-1
0,3422,0.73355633,-1
0,3423,0.54221106,-1
0,3424,0.4398919,-1
0,3425,0.17818583,-1
0,3426,0.067928638,-1
0,3427,-0.042475807,-1
0,3428,-0.0067941907,-1
0,3429,0.015047884,-1
0,3430,-0.049013166,-1
0,3431,-0.094703985,-1
0,3432,-0.1140152,-1
0,3433,-0.0011615384,-1
0,3434,-0.0838521,-1
0,3435,-0.093966707,-1
0,3436,-0.078748905,-1
0,3437,0.00019599784,-1
0,3438,-0.0877118,-1
0,3439,-0.09344386,-1
0,3440,-0.05769818,-1
0,3441,-0.060419021,-1
0,3442,-0.057214332,-1
0,3443,-0.11642003,-1
0,3444,-0.024918867,-1
0,3445,0.088910345,-1
0,3446,0.11528339,-1
0,3447,0.066654186,-1
0,3448,0.10396027,-1
0,3449,0.23877021,-1
0,3450,0.30620836,-1
0,3451,0.33757239,-1
0,3452,0.75526593,-1
0,3453,0.86793768,-1
0,3454,0.83823445,-1
0,3455,1.3586827,-1
0,3456,0.58597594,1
0,3457,1.1371795,1
0,3458,1.2907909,1
0,3459,1.33595,1
0,3460,1.2572291,1
0,3461,0.0056128186,1
0,3462,-0.8532002,1
0,3463,-0.85408508,1
0,3464,-0.95444804,1
0,3465,-0.74570298,1
0,3466,-0.90664719,1
0,3467,-1.1693085,1
0,3468,-1.2278135,1
0,3469,-1.4456713,1
0,3470,-1.3641394,1
0,3471,-1.4457378,1
0,3472,-1.6622698,1
0,3473,-1.5050652,1
0,3474,-1.676811,1
0,3475,-1.8241034,1
0,3476,-1.6514071,1
0,3477,-1.830753,1
0,3478,-1.6389427,1
0,3479,-1.712566,1
0,3480,-1.9989974,1
0,3481,-1.7098134,1
0,3482,-1.6747662,1
0,3483,-1.2410327,1
0,3484,-0.94469051,1
0,3485,-0.98619023,1
0,3486,-0.68197326,1
0,3487,-0.18182055,1
0,3488,0.041145017,1
0,3489,0.26965257,1
0,3490,0.48887294,1
0,3491,0.50861388,1
0,3492,0.81440337,1
0,3493,0.9045377,1
0,3494,0.84133469,1
0,3495,0.99911654,1
0,3496,0.70654447,1
0,3497,0.64984516,1
0,3498,0.78087253,1
0,3499,0.81487211,1
0,3500,0.87359903,1
0,3501,0.23948804,1
0,3502,0.97886007,1
0,3503,0.84852437,1
0,3504,0.27915647,1
0,3505,0.46947185,1
0,3506,0.55390315,1
0,3507,0.74572117,1
0,3508,0.54018362,1
0,3509,0.66707285,1
0,3510,0.43675462,1
0,3511,0.62178002,1
0,3512,0.44373617,1
0,3513,0.3734015,1
0,3514,0.47644065,1
0,3515,0.38699714,1
0,3516,0.77528263,1
0,3517,0.37837448,1
0,3518,0.1361239,1
0,3519,0.19337036,1
0,3520,0.21531201,1
0,3521,0.68831277,1
0,3522,0.86513661,1
0,3523,1.1040074,1
0,3524,0.53105904,1
0,3525,0.20986348,1
0,3526,0.47040482,1
0,3527,0.13428334,1
0,3528,0.051553549,1
0,3529,0.50461939,1
0,3530,-0.10774779,1
0,3531,-0.28093072,1
0,3532,-0.09797888,1
0,3533,-0.0090136989,1
0,3534,0.083350877,1
0,3535,-0.27151162,1
0,3536,-0.1728883,1
0,3537,-0.15630351,1
0,3538,-0.057780525,1
0,3539,-0.19680778,1
0,3540,-0.35654539,1
0,3541,-0.24017552,1
0,3542,-0.028155518,1
0,3543,-0.25056284,1
0,3544,0.50802148,1
0,3545,1.3931381,1
0,3546,2.4379164,1
0,3547,2.9100638,1
0,3548,1.9735478,1
0,3549,-0.048711772,1
0,3550,-1.5272921,1
0,3551,-0.24101953,1
0,3552,0.99970742,1
0,3553,2.7911688,1
0,3554,3.6556783,1
0,3555,2.4709798,1
0,3556,1.4594185,1
0,3557,0.33317464,1
0,3558,0.5504913,1
0,3559,1.4679113,1
0,3560,1.2131432,1
0,3561,1.0813722,1
0,3562,0.99656008,1
0,3563,0.46236553,1
0,3564,-0.36150828,1
0,3565,-0.50390667,1
0,3566,-0.57442722,1
0,3567,-0.62491742,1
0,3568,-0.7127256,1
0,3569,-0.87725194,1
0,3570,-0.863112,1
0,3571,-0.94895439,1
0,3572,-1.0918879,1
0,3573,-1.1544232,1
0,3574,-1.1557447,1
0,3575,-1.2367089,1
0,3576,-1.4393446,1
0,3577,-1.5328602,1
0,3578,-1.5505765,1
0,3579,-1.697434,1
0,3580,-1.9290225,1
0,3581,-1.8858667,1
0,3582,-1.978862,1
0,3583,-1.9854938,1
0,3584,-1.9680557,1
0,3585,-1.8771463,1
0,3586,-1.6102913,1
0,3587,-1.4227857,1
0,3588,-1.0420614,1
0,3589,-0.65191227,1
0,3590,-0.38674254,1
0,3591,-0.024739535,1
0,3592,0.34190604,1
0,3593,0.53080641,1
0,3594,0.52389908,1
0,3595,0.71934155,1
0,3596,0.83719421,1
0,3597,0.74033281,1
0,3598,0.75741592,1
0,3599,0.70839631,1
0,3600,0.67710308,1
0,3601,0.5996245,1
0,3602,0.52901871,1
0,3603,0.61907775,1
0,3604,0.5918086,1
0,3605,0.50106959,1
0,3606,0.51123953,1
0,3607,0.55878267,1
0,3608,0.44073898,1
0,3609,0.48503107,1
0,3610,0.50189452,1
0,3611,0.46095598,1
0,3612,0.39988058,1
0,3613,0.40444837,1
0,3614,0.40629134,1
0,3615,0.37917143,1
0,3616,0.32234146,1
0,3617,0.28236162,1
0,3618,0.35485281,1
0,3619,0.21421836,1
0,3620,0.18782819,1
0,3621,0.29084646,1
0,3622,0.16447839,1
0,3623,0.10950107,1
0,3624,0.15207041,1
0,3625,0.1993418,1
0,3626,0.29967751,1
0,3627,0.48495387,1
0,3628,0.60300949,1
0,3629,0.6067196,1
0,3630,0.43017987,1
0,3631,0.23113939,1
0,3632,0.22701451,1
0,3633,0.051546402,1
0,3634,-0.10722707,1
0,3635,-0.09565,1
0,3636,-0.15719648,1
0,3637,-0.19614914,1
0,3638,-0.11020546,1
0,3639,-0.19871606,1
0,3640,-0.21874786,1
0,3641,-0.22577521,1
0,3642,-0.28857256,1
0,3643,-0.1600383,1
0,3644,-0.24255383,1
0,3645,-0.31070396,1
0,3646,-0.26483934,1
0,3647,-0.25434277,1
0,3648,1.6163364,1
0,3649,2.0997266,1
0,3650,1.7879116,1
0,3651,1.3280621,1
0,3652,0.75938508,1
0,3653,0.23035588,1
0,3654,-0.18072166,1
0,3655,-0.15454607,1
0,3656,0.030906251,1
0,3657,-0.075155368,1
0,3658,-0.33687146,1
0,3659,-0.23652244,1
0,3660,0.017446446,1
0,3661,0.031067473,1
0,3662,-0.11954177,1
0,3663,-0.42609942,1
0,3664,-0.78787868,1
0,3665,-0.83315607,1
0,3666,-0.69918239,1
0,3667,-0.7868791,1
0,3668,-0.91889446,1
0,3669,-0.84977911,1
0,3670,-0.82126556,1
0,3671,-0.94243803,1
0,3672,-0.9580671,1
0,3673,-0.90753234,1
0,3674,-1.0062488,1
0,3675,-1.125972,1
0,3676,-1.2265875,1
0,3677,-1.3745719,1
0,3678,-1.3621048,1
0,3679,-1.2954596,1
0,3680,-1.4603632,1
0,3681,-1.6102179,1
0,3682,-1.6205738,1
0,3683,-1.6907146,1
0,3684,-1.7210371,1
0,3685,-1.6819537,1
0,3686,-1.6996601,1
0,3687,-1.6466202,1
0,3688,-1.5376434,1
0,3689,-1.5190506,1
0,3690,-1.4401019,1
0,3691,-1.2364728,1
0,3692,-1.0722291,1
0,3693,-0.96042602,1
0,3694,-0.82814727,1
0,3695,-0.62651442,1
0,3696,-0.38726802,1
0,3697,-0.25290086,1
0,3698,-0.15906052,1
0,3699,0.025740575,1
0,3700,0.14107311,1
0,3701,0.17093826,1
0,3702,0.30806218,1
0,3703,0.41424251,1
0,3704,0.37436844,1
0,3705,0.42253746,1
0,3706,0.55083151,1
0,3707,0.51761864,1
0,3708,0.41464957,1
0,3709,0.46229599,1
0,3710,0.56861931,1
0,3711,0.54402707,1
0,3712,0.46027884,1
0,3713,0.4835684,1
0,3714,0.53347655,1
0,3715,0.48240607,1
0,3716,0.44587169,1
0,3717,0.45746729,1
0,3718,0.41793131,1
0,3719,0.47211456,1
0,3720,0.62716251,1
0,3721,0.59303616,1
0,3722,0.48837218,1
0,3723,0.57181713,1
0,3724,0.7081623,1
0,3725,0.85056025,1
0,3726,0.99247237,1
0,3727,0.98314222,1
0,3728,1.0070419,1
0,3729,1.2195438,1
0,3730,1.3547613,1
0,3731,1.3755222,1
0,3732,1.4532931,1
0,3733,1.4661577,1
0,3734,1.3767514,1
0,3735,1.3916463,1
0,3736,1.4369003,1
0,3737,1.2658986,1
0,3738,1.1425243,1
0,3739,1.326915,1
0,3740,1.4148013,1
0,3741,0.80762715,1
0,3742,0.1164899,1
0,3743,0.036514563,1
0,3744,0.29476758,1
0,3745,0.86093158,1
0,3746,2.4191877,1
0,3747,3.4520527,1
0,3748,2.0206306,1
0,3749,-0.019059689,1
0,3750,-0.99335938,1
0,3751,-0.10652825,1
0,3752,0.54713625,1
0,3753,0.37580845,1
0,3754,0.4727728,1
0,3755,0.27377468,1
0,3756,-0.23720976,1
0,3757,-0.94233522,1
0,3758,-0.68503094,1
0,3759,-0.94911582,1
0,3760,-1.0395398,1
0,3761,-1.1689719,1
0,3762,-1.1913392,1
0,3763,-0.9059242,1
0,3764,-1.3046853,1
0,3765,-1.4366801,1
0,3766,-1.4286924,1
0,3767,-1.6120869,1
0,3768,-1.6178923,1
0,3769,-1.7272275,1
0,3770,-1.6543127,1
0,3771,-1.8647479,1
0,3772,-2.0437025,1
0,3773,-1.7881577,1
0,3774,-1.9843096,1
0,3775,-2.1426461,1
0,3776,-1.4607454,1
0,3777,-1.7978484,1
0,3778,-1.4780957,1
0,3779,-1.2309291,1
0,3780,-0.79822123,1
0,3781,-0.023287827,1
0,3782,-0.47024091,1
0,3783,0.15580858,1
0,3784,0.59327217,1
0,3785,0.79327638,1
0,3786,0.88352643,1
0,3787,0.9873342,1
0,3788,1.1383853,1
0,3789,0.98232369,1
0,3790,1.0010214,1
0,3791,0.83163539,1
0,3792,0.90998926,1
0,3793,0.84624751,1
0,3794,0.64582257,1
0,3795,0.69677522,1
0,3796,0.69267685,1
0,3797,0.81807675,1
0,3798,0.50115958,1
0,3799,0.57804953,1
0,3800,0.64158868,1
0,3801,0.65312703,1
0,3802,0.47728359,1
0,3803,0.49204638,1
0,3804,0.76712772,1
0,3805,0.53485721,1
0,3806,0.42846829,1
0,3807,0.50443169,1
0,3808,0.36799917,1
0,3809,0.27068227,1
0,3810,0.35391793,1
0,3811,0.36476282,1
0,3812,0.16523965,1
0,3813,0.24950479,1
0,3814,0.23825738,1
0,3815,0.34175502,1
0,3816,0.30403988,1
0,3817,0.6617561,1
0,3818,0.93488793,1
0,3819,0.5931077,1
0,3820,0.57686895,1
0,3821,0.47873224,1
0,3822,0.38042193,1
0,3823,0.38979563,1
0,3824,0.055126152,1
0,3825,0.04853402,1
0,3826,0.02372686,1
0,3827,0.018429521,1
0,3828,0.37602929,1
0,3829,-0.0049700637,1
0,3830,-0.1613087,1
0,3831,0.081796239,1
0,3832,0.11986411,1
0,3833,-0.23885135,1
0,3834,0.1956168,1
0,3835,0.078485501,1
0,3836,-0.15695041,1
0,3837,0.16256033,1
0,3838,-0.006183097,1
0,3839,0.56791545,1
0,3840,0.5807386,1
0,3841,1.0971106,1
0,3842,1.7440564,1
0,3843,2.2783712,1
0,3844,2.3894875,1
0,3845,2.3484163,1
0,3846,1.9432379,1
0,3847,1.2774838,1
0,3848,0.65341422,1
0,3849,0.081747746,1
0,3850,0.092010301,1
0,3851,0.27164682,1
0,3852,-0.223713,1
0,3853,-0.31928843,1
0,3854,0.15733927,1
0,3855,0.033266964,1
0,3856,-0.27660464,1
0,3857,-0.4154689,1
0,3858,-0.70769902,1
0,3859,-0.7798772,1
0,3860,-0.70635123,1
0,3861,-0.82926454,1
0,3862,-0.88312444,1
0,3863,-0.78555149,1
0,3864,-0.81218301,1
0,3865,-1.159634,1
0,3866,-1.4024688,1
0,3867,-1.1439035,1
0,3868,-1.1505974,1
0,3869,-1.6302565,1
0,3870,-1.677548,1
0,3871,-1.5217353,1
0,3872,-1.7507135,1
0,3873,-1.990933,1
0,3874,-2.086291,1
0,3875,-2.0731697,1
0,3876,-1.911572,1
0,3877,-1.8444634,1
0,3878,-1.8266953,1
0,3879,-1.7047513,1
0,3880,-1.5924942,1
0,3881,-1.4081611,1
0,3882,-1.0672233,1
0,3883,-0.73239867,1
0,3884,-0.6140476,1
0,3885,-0.62365533,1
0,3886,-0.30255211,1
0,3887,0.11621277,1
0,3888,0.055411688,1
0,3889,0.066442751,1
0,3890,0.42332142,1
0,3891,0.45323058,1
0,3892,0.30669245,1
0,3893,0.35921726,1
0,3894,0.36960693,1
0,3895,0.38301222,1
0,3896,0.47176348,1
0,3897,0.46110431,1
0,3898,0.37373316,1
0,3899,0.29326044,1
0,3900,0.28570498,1
0,3901,0.33948809,1
0,3902,0.36271362,1
0,3903,0.38574687,1
0,3904,0.37504944,1
0,3905,0.32928201,1
0,3906,0.36494342,1
0,3907,0.36740252,1
0,3908,0.35875166,1
0,3909,0.52162501,1
0,3910,0.62974813,1
0,3911,0.6374475,1
0,3912,0.8201197,1
0,3913,1.0291188,1
0,3914,1.070825,1
0,3915,1.0505703,1
0,3916,0.93059661,1
0,3917,0.71313129,1
0,3918,0.68223114,1
0,3919,0.73019617,1
0,3920,0.6047155,1
0,3921,0.65791259,1
0,3922,0.79018252,1
0,3923,0.59636625,1
0,3924,0.50330359,1
0,3925,0.5148594,1
0,3926,0.36250425,1
0,3927,0.41891152,1
0,3928,0.43683991,1
0,3929,0.23026572,1
0,3930,0.30666737,1
0,3931,0.41880937,1
0,3932,0.28307678,1
0,3933,0.28666866,1
0,3934,0.32964691,1
0,3935,0.14763104,1
0,3936,0.38123865,1
0,3937,0.63353024,1
0,3938,1.002302,1
0,3939,1.5212777,1
0,3940,1.8638942,1
0,3941,1.7927666,1
0,3942,1.3811552,1
0,3943,0.85684321,1
0,3944,0.26386347,1
0,3945,-0.15280853,1
0,3946,-0.1303639,1
0,3947,0.084059923,1
0,3948,0.034076095,1
0,3949,-0.18460828,1
0,3950,-0.24718659,1
0,3951,-0.19186736,1
0,3952,-0.10236096,1
0,3953,-0.10079175,1
0,3954,-0.38136518,1
0,3955,-0.63136351,1
0,3956,-0.60606993,1
0,3957,-0.64047755,1
0,3958,-0.70421571,1
0,3959,-0.632491,1
0,3960,-0.74384537,1
0,3961,-0.9688458,1
0,3962,-0.94665381,1
0,3963,-0.84190708,1
0,3964,-0.85262508,1
0,3965,-0.915115,1
0,3966,-1.070632,1
0,3967,-1.3026119,1
0,3968,-1.3942987,1
0,3969,-1.3316191,1
0,3970,-1.3642305,1
0,3971,-1.5447106,1
0,3972,-1.6770709,1
0,3973,-1.7169963,1
0,3974,-1.7519345,1
0,3975,-1.7530924,1
0,3976,-1.7430616,1
0,3977,-1.8213353,1
0,3978,-1.8324035,1
0,3979,-1.6011439,1
0,3980,-1.3414148,1
0,3981,-1.2219698,1
0,3982,-1.1242385,1
0,3983,-1.0325074,1
0,3984,-0.93561726,1
0,3985,-0.69685446,1
0,3986,-0.37407899,1
0,3987,-0.13286473,1
0,3988,0.013063599,1
0,3989,0.13762721,1
0,3990,0.30735216,1
0,3991,0.47997495,1
0,3992,0.58140714,1
0,3993,0.67917086,1
0,3994,0.79151735,1
0,3995,0.81584029,1
0,3996,0.78038301,1
0,3997,0.77843241,1
0,3998,0.81246709,1
0,3999,0.86141506,1
0,4000,0.85233767,1
0,4001,0.78723205,1
0,4002,0.79792534,1
0,4003,0.82803079,1
0,4004,0.80570054,1
0,4005,0.80673359,1
0,4006,0.75091701,1
0,4007,0.70935151,1
0,4008,0.82109051,1
0,4009,0.76975229,1
0,4010,0.59720507,1
0,4011,0.75976065,1
0,4012,0.96383845,1
0,4013,0.87539839,1
0,4014,0.82509616,1
0,4015,0.86680864,1
0,4016,0.85295836,1
0,4017,0.86424777,1
0,4018,0.89555601,1
0,4019,1.0137696,1
0,4020,1.1453727,1
0,4021,1.0410415,1
0,4022,1.0540548,1
0,4023,1.3494831,1
0,4024,1.4363899,1
0,4025,1.3002423,1
0,4026,0.95296784,1
0,4027,0.35397519,1
0,4028,-0.037792658,1
0,4029,-0.60937387,1
0,4030,-1.474071,1
0,4031,-1.0700091,1
0,4032,0.31452914,1
0,4033,1.9123548,1
0,4034,2.9333556,1
0,4035,1.5788524,1
0,4036,1.3517568,1
0,4037,0.028089189,1
0,4038,-1.2632887,1
0,4039,0.032857894,1
0,4040,0.40003933,1
0,4041,-0.20063643,1
0,4042,0.065543508,1
0,4043,0.20950973,1
0,4044,-0.69548403,1
0,4045,-1.0077523,1
0,4046,-0.94276255,1
0,4047,-1.1275164,1
0,4048,-1.095153,1
0,4049,-1.0951984,1
0,4050,-1.2995269,1
0,4051,-1.4563502,1
0,4052,-1.3408939,1
0,4053,-1.2609331,1
0,4054,-1.5417315,1
0,4055,-1.698238,1
0,4056,-1.6536663,1
0,4057,-1.682468,1
0,4058,-1.8680693,1
0,4059,-2.0167442,1
0,4060,-1.9484745,1
0,4061,-2.0687512,1
0,4062,-2.1358328,1
0,4063,-1.9864864,1
0,4064,-1.5471905,1
0,4065,-1.6836213,1
0,4066,-1.5096744,1
0,4067,-0.86883463,1
0,4068,-0.80272275,1
0,4069,-0.32872716,1
0,4070,-0.13563526,1
0,4071,0.14102395,1
0,4072,0.66481739,1
0,4073,0.51545957,1
0,4074,0.87494502,1
0,4075,0.71134621,1
0,4076,1.0102798,1
0,4077,0.84586816,1
0,4078,0.64720847,1
0,4079,1.171734,1
0,4080,0.54904041,1
0,4081,0.79365876,1
0,4082,0.78513749,1
0,4083,0.34467449,1
0,4084,0.78651213,1
0,4085,0.48572658,1
0,4086,0.68113477,1
0,4087,0.60322562,1
0,4088,0.62542157,1
0,4089,0.55096738,1
0,4090,0.55788416,1
0,4091,0.59327119,1
0,4092,0.63621326,1
0,4093,0.84050833,1
0,4094,0.36189828,1
0,4095,0.44499235,1
0,4096,0.73680784,1
0,4097,0.33686932,1
0,4098,0.55244374,1
0,4099,0.37112219,1
0,4100,0.37065549,1
0,4101,0.68025979,1
0,4102,0.08146743,1
0,4103,0.4553567,1
0,4104,0.44991117,1
0,4105,0.43518479,1
0,4106,1.0397024,1
0,4107,0.63467635,1
0,4108,0.94194723,1
0,4109,1.0765017,1
0,4110,0.40302246,1
0,4111,0.50310337,1
0,4112,0.40319452,1
0,4113,0.18811983,1
0,4114,0.14261348,1
0,4115,0.20686898,1
0,4116,0.16984613,1
0,4117,0.17912233,1
0,4118,0.47274545,1
0,4119,0.21595497,1
0,4120,-0.0015606175,1
0,4121,0.261008,1
0,4122,0.33200537,1
0,4123,0.19580798,1
0,4124,0.27623309,1
0,4125,0.39961581,1
0,4126,0.36897911,1
0,4127,0.33294027,1
0,4128,0.31421954,-1
0,4129,0.78106253,-1
0,4130,1.2049684,-1
0,4131,1.5346969,-1
0,4132,1.8773314,-1
0,4133,2.1582136,-1
0,4134,2.1029722,-1
0,4135,1.6779094,-1
0,4136,1.1686752,-1
0,4137,0.68953902,-1
0,4138,0.16295673,-1
0,4139,-0.22586798,-1
0,4140,-0.26498096,-1
0,4141,-0.17853669,-1
0,4142,-0.21714779,-1
0,4143,-0.2391025,-1
0,4144,-0.095147651,-1
0,4145,0.067183123,-1
0,4146,0.044738707,-1
0,4147,-0.19239807,-1
0,4148,-0.52251979,-1
0,4149,-0.75271166,-1
0,4150,-0.7633734,-1
0,4151,-0.67793966,-1
0,4152,-0.70799498,-1
0,4153,-0.83776254,-1
0,4154,-0.89701391,-1
0,4155,-0.89567536,-1
0,4156,-0.9626454,-1
0,4157,-1.0852043,-1
0,4158,-1.1786837,-1
0,4159,-1.2381379,-1
0,4160,-1.311662,-1
0,4161,-1.4525965,-1
0,4162,-1.6413078,-1
0,4163,-1.7848404,-1
0,4164,-1.8723492,-1
0,4165,-1.8906598,-1
0,4166,-1.7787761,-1
0,4167,-1.7101998,-1
0,4168,-1.8413478,-1
0,4169,-1.8897977,-1
0,4170,-1.725754,-1
0,4171,-1.6544786,-1
0,4172,-1.6172059,-1
0,4173,-1.3332645,-1
0,4174,-1.0711115,-1
0,4175,-1.053257,-1
0,4176,-0.94570387,-1
0,4177,-0.6480925,-1
0,4178,-0.46395201,-1
0,4179,-0.44029382,-1
0,4180,-0.37801159,-1
0,4181,-0.17973792,-1
0,4182,0.068041623,-1
0,4183,0.1697713,-1
0,4184,0.13236052,-1
0,4185,0.20540715,-1
0,4186,0.39916148,-1
0,4187,0.49643003,-1
0,4188,0.51251997,-1
0,4189,0.56105279,-1
0,4190,0.60312536,-1
0,4191,0.6565219,-1
0,4192,0.74428084,-1
0,4193,0.74381857,-1
0,4194,0.66879431,-1
0,4195,0.67557652,-1
0,4196,0.72364773,-1
0,4197,0.72221816,-1
0,4198,0.77217538,-1
0,4199,0.8871881,-1
0,4200,0.88714718,-1
0,4201,0.77645149,-1
0,4202,0.76292721,-1
0,4203,0.81154604,-1
0,4204,0.68923001,-1
0,4205,0.48300041,-1
0,4206,0.5368841,-1
0,4207,0.82934108,-1
0,4208,0.96538322,-1
0,4209,0.89002952,-1
0,4210,0.90713135,-1
0,4211,0.95208708,-1
0,4212,0.7811642,-1
0,4213,0.6401907,-1
0,4214,0.71962299,-1
0,4215,0.69281771,-1
0,4216,0.53890721,-1
0,4217,0.61208345,-1
0,4218,0.73607727,-1
0,4219,0.57119883,-1
0,4220,0.44656844,-1
0,4221,0.67154941,-1
0,4222,0.78798188,-1
0,4223,0.40136535,-1
0,4224,0.65173918,-1
0,4225,1.2370342,-1
0,4226,2.1094477,-1
0,4227,1.4324433,-1
0,4228,0.78670067,-1
0,4229,-0.45945978,-1
0,4230,-0.36329857,-1
0,4231,-0.55752269,-1
0,4232,-1.1959349,-1
0,4233,-0.8249699,-1
0,4234,-0.78616871,-1
0,4235,-1.2286909,-1
0,4236,-1.3205729,-1
0,4237,-1.3830934,-1
0,4238,-1.3137133,-1
0,4239,-1.3088983,-1
0,4240,-1.4952363,-1
0,4241,-1.6645152,-1
0,4242,-1.6580473,-1
0,4243,-1.8050654,-1
0,4244,-1.9127306,-1
0,4245,-2.3294546,-1
0,4246,-2.5095343,-1
0,4247,-2.4365433,-1
0,4248,-2.25226,-1
0,4249,-2.6018957,-1
0,4250,-1.7742065,-1
0,4251,-1.6680736,-1
0,4252,-1.5599063,-1
0,4253,-0.66048299,-1
0,4254,-0.87372723,-1
0,4255,-0.34851131,-1
0,4256,-0.069974211,-1
0,4257,-0.1522794,-1
0,4258,-0.10986013,-1
0,4259,0.32801368,-1
0,4260,0.21190219,-1
0,4261,-0.0074185574,-1
0,4262,0.38776298,-1
0,4263,0.14009821,-1
0,4264,0.21024603,-1
0,4265,0.32263201,-1
0,4266,0.44521874,-1
0,4267,0.38708037,-1
0,4268,0.47891035,-1
0,4269,0.62107045,-1
0,4270,0.57921611,-1
0,4271,0.69960986,-1
0,4272,0.91670757,-1
0,4273,0.69036064,-1
0,4274,0.78867598,-1
0,4275,0.87630152,-1
0,4276,0.83114476,-1
0,4277,0.79840024,-1
0,4278,0.74892898,-1
0,4279,0.55054866,-1
0,4280,0.56323602,-1
0,4281,0.98123191,-1
0,4282,0.46065651,-1
0,4283,0.6243964,-1
0,4284,0.62939021,-1
0,4285,0.64997374,-1
0,4286,0.37188004,-1
0,4287,0.69082008,-1
0,4288,0.50977472,-1
0,4289,0.57865534,-1
0,4290,0.44903641,-1
0,4291,0.50170411,-1
0,4292,0.55146457,-1
0,4293,0.5184779,-1
0,4294,0.47135908,-1
0,4295,0.59085883,-1
0,4296,0.52547599,-1
0,4297,0.5670984,-1
0,4298,0.60085031,-1
0,4299,0.59996991,-1
0,4300,0.37192774,-1
0,4301,0.77951338,-1
0,4302,0.81321292,-1
0,4303,0.81717349,-1
0,4304,0.85718509,-1
0,4305,0.57841371,-1
0,4306,0.79580156,-1
0,4307,0.39816153,-1
0,4308,0.46657552,-1
0,4309,0.51741161,-1
0,4310,0.35107124,-1
0,4311,0.33964832,-1
0,4312,0.2775461,-1
0,4313,0.66992836,-1
0,4314,0.39167078,-1
0,4315,0.50667614,-1
0,4316,-0.10257616,-1
0,4317,0.29257261,-1
0,4318,0.45394247,-1
0,4319,0.38968526,-1
0,4320,0.5358112,1
0,4321,0.6007662,1
0,4322,2.115888,1
0,4323,3.3480717,1
0,4324,2.0451475,1
0,4325,1.4415876,1
0,4326,0.10484063,1
0,4327,-0.093578452,1
0,4328,1.0806246,1
0,4329,0.99424594,1
0,4330,0.99555338,1
0,4331,0.87982356,1
0,4332,0.72863849,1
0,4333,-0.35932679,1
0,4334,-0.86489438,1
0,4335,-0.70354973,1
0,4336,-0.89332244,1
0,4337,-0.99962492,1
0,4338,-1.0895387,1
0,4339,-1.0714517,1
0,4340,-1.0800592,1
0,4341,-1.3338561,1
0,4342,-1.3746308,1
0,4343,-1.4982365,1
0,4344,-1.510173,1
0,4345,-1.5826767,1
0,4346,-1.8217105,1
0,4347,-1.6917148,1
0,4348,-1.8294197,1
0,4349,-1.8667598,1
0,4350,-1.9627095,1
0,4351,-1.9313763,1
0,4352,-1.737213,1
0,4353,-1.8744234,1
0,4354,-1.6583345,1
0,4355,-1.206337,1
0,4356,-0.98843838,1
0,4357,-0.67382704,1
0,4358,-0.31351342,1
0,4359,0.048131147,1
0,4360,0.36884819,1
0,4361,0.56313559,1
0,4362,0.71850792,1
0,4363,0.90008507,1
0,4364,1.047931,1
0,4365,1.0429636,1
0,4366,0.89953366,1
0,4367,1.0279334,1
0,4368,1.026368,1
0,4369,0.91264163,1
0,4370,0.6238852,1
0,4371,0.77580761,1
0,4372,0.9005532,1
0,4373,0.51607342,1
0,4374,0.84117045,1
0,4375,0.57778281,1
0,4376,0.53402255,1
0,4377,0.80115669,1
0,4378,0.68692175,1
0,4379,0.58087065,1
0,4380,0.49762567,1
0,4381,0.45019918,1
0,4382,0.52066011,1
0,4383,0.45495261,1
0,4384,0.3871647,1
0,4385,0.3048046,1
0,4386,0.21445674,1
0,4387,0.20228491,1
0,4388,0.24764394,1
0,4389,0.22296468,1
0,4390,-0.040042393,1
0,4391,0.21030657,1
0,4392,0.10010929,1
0,4393,0.51042812,1
0,4394,0.57268599,1
0,4395,0.48502131,1
0,4396,1.1681583,1
0,4397,0.74938465,1
0,4398,0.04494477,1
0,4399,-0.066675367,1
0,4400,-0.084065601,1
0,4401,-0.04429502,1
0,4402,-0.21687749,1
0,4403,-0.19060671,1
0,4404,-0.15579939,1
0,4405,-0.34512885,1
0,4406,-0.16215852,1
0,4407,-0.047013086,1
0,4408,-0.43940214,1
0,4409,-0.33467576,1
0,4410,-0.18828509,1
0,4411,-0.25589394,1
0,4412,-0.15220019,1
0,4413,-0.24433304,1
0,4414,-0.34811243,1
0,4415,-0.28285676,1
0,4416,1.4684175,-1
0,4417,3.2539464,-1
0,4418,3.5995103,-1
0,4419,2.3933767,-1
0,4420,0.41737672,-1
0,4421,1.071454,-1
0,4422,1.685863,-1
0,4423,1.5729415,-1
0,4424,1.7088762,-1
0,4425,1.0320818,-1
0,4426,0.05307411,-1
0,4427,-0.50839812,-1
0,4428,-0.47231375,-1
0,4429,-0.70552421,-1
0,4430,-0.78626011,-1
0,4431,-0.9431652,-1
0,4432,-1.0633661,-1
0,4433,-1.168249,-1
0,4434,-1.155859,-1
0,4435,-1.2921202,-1
0,4436,-1.4191115,-1
0,4437,-1.4850444,-1
0,4438,-1.6273653,-1
0,4439,-1.8020693,-1
0,4440,-1.8703254,-1
0,4441,-1.9727786,-1
0,4442,-2.0736688,-1
0,4443,-2.054587,-1
0,4444,-1.9235598,-1
0,4445,-1.7610525,-1
0,4446,-1.5644783,-1
0,4447,-1.1734369,-1
0,4448,-0.64637223,-1
0,4449,-0.29916933,-1
0,4450,0.033866505,-1
0,4451,0.43856506,-1
0,4452,0.55741685,-1
0,4453,0.83684083,-1
0,4454,0.86219204,-1
0,4455,0.86332303,-1
0,4456,0.73373806,-1
0,4457,0.74286369,-1
0,4458,0.71255677,-1
0,4459,0.56798877,-1
0,4460,0.55329732,-1
0,4461,0.63970949,-1
0,4462,0.53078,-1
0,4463,0.52132135,-1
0,4464,0.4875235,-1
0,4465,0.42475336,-1
0,4466,0.29269957,-1
0,4467,0.4149625,-1
0,4468,0.36965221,-1
0,4469,0.15175597,-1
0,4470,0.18999208,-1
0,4471,0.20083312,-1
0,4472,0.097209651,-1
0,4473,0.037613958,-1
0,4474,0.11253864,-1
0,4475,0.033237732,-1
0,4476,-0.02367321,-1
0,4477,0.050143982,-1
0,4478,0.02095634,-1
0,4479,-0.095082575,-1
0,4480,-0.039961331,-1
0,4481,0.039653284,-1
0,4482,0.030251268,-1
0,4483,-0.1301563,-1
0,4484,0.1155564,-1
0,4485,-0.0142366,-1
0,4486,-0.12020794,-1
0,4487,0.070485289,-1
0,4488,-0.013129003,-1
0,4489,-0.063534613,-1
0,4490,-0.060068932,-1
0,4491,0.20159924,-1
0,4492,0.12560538,-1
0,4493,0.35961784,-1
0,4494,0.48612796,-1
0,4495,0.22319232,-1
0,4496,0.2344934,-1
0,4497,0.28242688,-1
0,4498,-0.13580683,-1
0,4499,-0.18727892,-1
0,4500,-0.10947385,-1
0,4501,-0.20503522,-1
0,4502,-0.11603394,-1
0,4503,-0.17146032,-1
0,4504,-0.15398275,-1
0,4505,-0.25851518,-1
0,4506,-0.087435752,-1
0,4507,-0.068080977,-1
0,4508,-0.10364012,-1
0,4509,-0.10245353,-1
0,4510,-0.021530855,-1
0,4511,0.14479403,-1
0,4512,1.450874,-1
0,4513,2.5570839,-1
0,4514,1.9918773,-1
0,4515,1.486097,-1
0,4516,1.7354962,-1
0,4517,1.338377,-1
0,4518,0.26275366,-1
0,4519,-0.1148676,-1
0,4520,0.1974278,-1
0,4521,0.42180558,-1
0,4522,0.58532859,-1
0,4523,0.62372327,-1
0,4524,0.45377072,-1
0,4525,0.54674871,-1
0,4526,0.54709414,-1
0,4527,-0.025421027,-1
0,4528,-0.3992211,-1
0,4529,-0.36481858,-1
0,4530,-0.44704226,-1
0,4531,-0.49995006,-1
0,4532,-0.51412324,-1
0,4533,-0.69395009,-1
0,4534,-0.80428474,-1
0,4535,-0.71844508,-1
0,4536,-0.6389764,-1
0,4537,-0.7243717,-1
0,4538,-0.88547627,-1
0,4539,-0.92901518,-1
0,4540,-0.86621187,-1
0,4541,-0.87417332,-1
0,4542,-0.96963206,-1
0,4543,-1.0134753,-1
0,4544,-1.0534537,-1
0,4545,-1.1475499,-1
0,4546,-1.1570454,-1
0,4547,-1.1378484,-1
0,4548,-1.2149863,-1
0,4549,-1.2789714,-1
0,4550,-1.3087057,-1
0,4551,-1.3269767,-1
0,4552,-1.301223,-1
0,4553,-1.3009373,-1
0,4554,-1.3134505,-1
0,4555,-1.349907,-1
0,4556,-1.415896,-1
0,4557,-1.3828838,-1
0,4558,-1.4170395,-1
0,4559,-1.4538743,-1
0,4560,-1.1305481,-1
0,4561,-0.8433083,-1
0,4562,-0.79132007,-1
0,4563,-0.51434893,-1
0,4564,-0.22593269,-1
0,4565,-0.13825608,-1
0,4566,0.087944204,-1
0,4567,0.36954458,-1
0,4568,0.47582154,-1
0,4569,0.40274027,-1
0,4570,0.22281146,-1
0,4571,0.15902303,-1
0,4572,0.23351695,-1
0,4573,0.29103782,-1
0,4574,0.31631407,-1
0,4575,0.26956682,-1
0,4576,0.18663139,-1
0,4577,0.18942324,-1
0,4578,0.20436166,-1
0,4579,0.15762555,-1
0,4580,0.11163348,-1
0,4581,0.07806129,-1
0,4582,0.037505075,-1
0,4583,-0.008191192,-1
0,4584,0.010155106,-1
0,4585,0.093521958,-1
0,4586,0.042215749,-1
0,4587,-0.056904462,-1
0,4588,0.043026546,-1
0,4589,0.15674891,-1
0,4590,0.15283328,-1
0,4591,0.1448568,-1
0,4592,0.10450183,-1
0,4593,0.12606128,-1
0,4594,0.20115557,-1
0,4595,0.17509916,-1
0,4596,0.1912545,-1
0,4597,0.21765326,-1
0,4598,0.26097232,-1
0,4599,0.58207622,-1
0,4600,1.084883,-1
0,4601,1.8521323,-1
0,4602,2.7458885,-1
0,4603,2.8192039,-1
0,4604,2.2613344,-1
0,4605,2.1453774,-1
0,4606,1.8595552,-1
0,4607,0.49048734,-1
0,4608,0.99311088,1
0,4609,2.7048435,1
0,4610,3.4733421,1
0,4611,2.2126661,1
0,4612,0.45329533,1
0,4613,0.047793342,1
0,4614,0.95955986,1
0,4615,1.1930596,1
0,4616,1.007462,1
0,4617,0.99132093,1
0,4618,0.57820045,1
0,4619,-0.019752725,1
0,4620,-0.48965442,1
0,4621,-0.44228661,1
0,4622,-0.58495969,1
0,4623,-0.4443578,1
0,4624,-0.36681751,1
0,4625,-0.40379975,1
0,4626,-0.61565955,1
0,4627,-0.83379226,1
0,4628,-1.025003,1
0,4629,-1.201268,1
0,4630,-1.3762815,1
0,4631,-1.4132188,1
0,4632,-1.4878131,1
0,4633,-1.7930976,1
0,4634,-1.8546667,1
0,4635,-2.0736805,1
0,4636,-2.0869331,1
0,4637,-2.0074234,1
0,4638,-2.1524661,1
0,4639,-2.0920997,1
0,4640,-2.0311639,1
0,4641,-1.8833279,1
0,4642,-1.5725866,1
0,4643,-1.3058619,1
0,4644,-1.002047,1
0,4645,-0.53302166,1
0,4646,-0.10067188,1
0,4647,0.10165556,1
0,4648,0.42403295,1
0,4649,0.65213763,1
0,4650,0.77169086,1
0,4651,0.91439267,1
0,4652,0.80432214,1
0,4653,0.80127314,1
0,4654,0.69083304,1
0,4655,0.61021074,1
0,4656,0.7091267,1
0,4657,0.65098901,1
0,4658,0.62584063,1
0,4659,0.6350268,1
0,4660,0.62785003,1
0,4661,0.67701916,1
0,4662,0.74058694,1
0,4663,0.76568509,1
0,4664,0.75747855,1
0,4665,0.63137099,1
0,4666,0.5503832,1
0,4667,0.57019334,1
0,4668,0.47303239,1
0,4669,0.38274519,1
0,4670,0.39918361,1
0,4671,0.33821756,1
0,4672,0.25162563,1
0,4673,0.23681772,1
0,4674,0.21019813,1
0,4675,0.19977885,1
0,4676,0.19538199,1
0,4677,0.15563249,1
0,4678,0.18672692,1
0,4679,0.15264001,1
0,4680,0.058320816,1
0,4681,0.14603854,1
0,4682,0.34330537,1
0,4683,0.44168717,1
0,4684,0.63961804,1
0,4685,0.64339829,1
0,4686,0.44976835,1
0,4687,0.41549582,1
0,4688,0.24083847,1
0,4689,0.11312449,1
0,4690,0.042859218,1
0,4691,-0.11644459,1
0,4692,-0.089543136,1
0,4693,-0.064282766,1
0,4694,-0.13243209,1
0,4695,-0.16534767,1
0,4696,-0.12308486,1
0,4697,-0.26683751,1
0,4698,-0.31281061,1
0,4699,-0.1985655,1
0,4700,-0.11995395,1
0,4701,-0.076979263,1
0,4702,-0.14541578,1
0,4703,-0.037778275,1
0,4704,0.12377605,-1
0,4705,2.4334614,-1
0,4706,2.7623845,-1
0,4707,2.3959632,-1
0,4708,2.1412625,-1
0,4709,-0.41829927,-1
0,4710,0.51694526,-1
0,4711,0.3463399,-1
0,4712,-0.024068726,-1
0,4713,0.59781942,-1
0,4714,-0.41035257,-1
0,4715,-1.3711803,-1
0,4716,-1.2626738,-1
0,4717,-1.3410687,-1
0,4718,-1.439354,-1
0,4719,-1.7022762,-1
0,4720,-1.5347447,-1
0,4721,-1.5867927,-1
0,4722,-1.7684513,-1
0,4723,-1.7812406,-1
0,4724,-2.0252245,-1
0,4725,-2.0039307,-1
0,4726,-2.2033053,-1
0,4727,-2.2882265,-1
0,4728,-2.1056452,-1
0,4729,-2.1816572,-1
0,4730,-1.8756048,-1
0,4731,-1.7190811,-1
0,4732,-1.4309135,-1
0,4733,-0.8422116,-1
0,4734,-0.60268298,-1
0,4735,-0.27167349,-1
0,4736,0.043212308,-1
0,4737,0.42843503,-1
0,4738,0.41907598,-1
0,4739,0.50986322,-1
0,4740,0.73711529,-1
0,4741,0.65138486,-1
0,4742,0.50753165,-1
0,4743,0.54840182,-1
0,4744,0.48530713,-1
0,4745,0.44250036,-1
0,4746,0.41950302,-1
0,4747,0.42099329,-1
0,4748,0.44422195,-1
0,4749,0.49148377,-1
0,4750,0.34982511,-1
0,4751,0.44492622,-1
0,4752,0.30543753,-1
0,4753,0.31988394,-1
0,4754,0.34194301,-1
0,4755,0.21074101,-1
0,4756,0.19134602,-1
0,4757,0.35677577,-1
0,4758,0.14262695,-1
0,4759,0.19375202,-1
0,4760,0.30562366,-1
0,4761,0.081876195,-1
0,4762,0.12666364,-1
0,4763,0.094116222,-1
0,4764,0.14380138,-1
0,4765,0.034175938,-1
0,4766,0.14278655,-1
0,4767,0.069114893,-1
0,4768,0.22675027,-1
0,4769,0.041043601,-1
0,4770,0.20327393,-1
0,4771,0.14643482,-1
0,4772,0.09692111,-1
0,4773,0.32241503,-1
0,4774,0.039481129,-1
0,4775,0.28112422,-1
0,4776,0.18655268,-1
0,4777,0.52755881,-1
0,4778,0.30947666,-1
0,4779,0.22119106,-1
0,4780,0.40176022,-1
0,4781,0.76148521,-1
0,4782,0.84402685,-1
0,4783,0.99665027,-1
0,4784,1.0212269,-1
0,4785,0.90251967,-1
0,4786,0.60200662,-1
0,4787,0.47199256,-1
0,4788,0.45648089,-1
0,4789,0.18361577,-1
0,4790,0.21749914,-1
0,4791,0.30316616,-1
0,4792,0.27681185,-1
0,4793,0.2281094,-1
0,4794,0.41509186,-1
0,4795,0.39851671,-1
0,4796,0.13766325,-1
0,4797,0.26363448,-1
0,4798,0.59589603,-1
0,4799,0.3878846,-1
0,4800,1.814836,1
0,4801,3.1168412,1
0,4802,2.709344,1
0,4803,2.2893513,1
0,4804,0.74680004,1
0,4805,0.34330609,1
0,4806,1.3851769,1
0,4807,1.2283536,1
0,4808,1.2051607,1
0,4809,1.3629613,1
0,4810,0.72878415,1
0,4811,0.16295678,1
0,4812,-0.0080553275,1
0,4813,-0.22321765,1
0,4814,-0.43115973,1
0,4815,-0.48352087,1
0,4816,-0.5467077,1
0,4817,-0.85696251,1
0,4818,-0.95103046,1
0,4819,-0.93978875,1
0,4820,-1.0726102,1
0,4821,-1.3601239,1
0,4822,-1.3413854,1
0,4823,-1.4050711,1
0,4824,-1.7154323,1
0,4825,-1.759417,1
0,4826,-1.8844255,1
0,4827,-1.950008,1
0,4828,-2.1831213,1
0,4829,-2.1779467,1
0,4830,-2.1525434,1
0,4831,-2.0963579,1
0,4832,-2.0510521,1
0,4833,-1.802704,1
0,4834,-1.4675531,1
0,4835,-1.2232884,1
0,4836,-0.78604128,1
0,4837,-0.38868829,1
0,4838,-0.070863958,1
0,4839,0.15871901,1
0,4840,0.39615348,1
0,4841,0.60075948,1
0,4842,0.50987172,1
0,4843,0.5699061,1
0,4844,0.68246625,1
0,4845,0.52126002,1
0,4846,0.42960377,1
0,4847,0.36043331,1
0,4848,0.38969564,1
0,4849,0.42090655,1
0,4850,0.38012997,1
0,4851,0.36076989,1
0,4852,0.31933386,1
0,4853,0.39643818,1
0,4854,0.382826,1
0,4855,0.40484153,1
0,4856,0.58767065,1
0,4857,0.59500206,1
0,4858,0.35283927,1
0,4859,0.59457128,1
0,4860,0.52692647,1
0,4861,0.50865477,1
0,4862,0.5427347,1
0,4863,0.37860812,1
0,4864,0.44005207,1
0,4865,0.33123905,1
0,4866,0.31359522,1
0,4867,0.44666908,1
0,4868,0.43036174,1
0,4869,0.18632146,1
0,4870,0.21795405,1
0,4871,0.16279763,1
0,4872,0.22910978,1
0,4873,0.29358933,1
0,4874,0.39369087,1
0,4875,0.55408042,1
0,4876,0.27941028,1
0,4877,0.28295483,1
0,4878,0.073871144,1
0,4879,-0.17960444,1
0,4880,0.020608281,1
0,4881,-0.15176853,1
0,4882,-0.02923996,1
0,4883,-0.09605356,1
0,4884,-0.078537956,1
0,4885,0.16677821,1
0,4886,0.0043439165,1
0,4887,-0.21732801,1
0,4888,0.094326169,1
0,4889,0.10021276,1
0,4890,-0.15028811,1
0,4891,0.029410633,1
0,4892,0.087803882,1
0,4893,-0.0024222663,1
0,4894,0.26674696,1
0,4895,0.3633978,1
0,4896,1.1685633,1
0,4897,1.8563351,1
0,4898,2.1545365,1
0,4899,2.3218258,1
0,4900,1.9164374,1
0,4901,1.214881,1
0,4902,0.52682367,1
0,4903,0.30918951,1
0,4904,0.61779774,1
0,4905,0.76545115,1
0,4906,0.69202363,1
0,4907,0.83157467,1
0,4908,0.85853066,1
0,4909,0.37871281,1
0,4910,-0.21882916,1
0,4911,-0.54759978,1
0,4912,-0.57829007,1
0,4913,-0.57036241,1
0,4914,-0.82642609,1
0,4915,-1.0418231,1
0,4916,-0.7989705,1
0,4917,-0.79339385,1
0,4918,-1.1716008,1
0,4919,-1.2151115,1
0,4920,-1.305476,1
0,4921,-1.5137317,1
0,4922,-1.4558355,1
0,4923,-1.6207633,1
0,4924,-1.8120478,1
0,4925,-1.7640156,1
0,4926,-2.0627722,1
0,4927,-2.2859142,1
0,4928,-2.1082389,1
0,4929,-2.1224856,1
0,4930,-2.1131536,1
0,4931,-1.9369656,1
0,4932,-1.7960732,1
0,4933,-1.5180592,1
0,4934,-1.4170015,1
0,4935,-1.2032011,1
0,4936,-0.48419464,1
0,4937,-0.2469919,1
0,4938,-0.21486007,1
0,4939,0.17800355,1
0,4940,0.15326628,1
0,4941,0.34652261,1
0,4942,0.5602158,1
0,4943,0.43173761,1
0,4944,0.43292827,1
0,4945,0.31104039,1
0,4946,0.46511094,1
0,4947,0.80842949,1
0,4948,0.75977671,1
0,4949,0.55031466,1
0,4950,0.48885185,1
0,4951,0.72413274,1
0,4952,0.75093312,1
0,4953,0.63100588,1
0,4954,0.71781997,1
0,4955,0.6192352,1
0,4956,0.47629716,1
0,4957,0.62541035,1
0,4958,0.64715893,1
0,4959,0.53358724,1
0,4960,0.77102669,1
0,4961,0.80847799,1
0,4962,0.45094397,1
0,4963,0.57542273,1
0,4964,0.70451729,1
0,4965,0.60622152,1
0,4966,0.73263084,1
0,4967,0.61479159,1
0,4968,0.78328362,1
0,4969,0.9028789,1
0,4970,0.58169505,1
0,4971,0.64803104,1
0,4972,0.72286437,1
0,4973,0.54406191,1
0,4974,0.27844715,1
0,4975,0.11675102,1
0,4976,0.1264548,1
0,4977,0.1585669,1
0,4978,0.26965904,1
0,4979,-0.018007492,1
0,4980,0.013914038,1
0,4981,0.20245165,1
0,4982,-0.17801548,1
0,4983,-0.047374373,1
0,4984,-0.090093265,1
0,4985,-0.3091298,1
0,4986,-0.02871342,1
0,4987,0.0010401512,1
0,4988,-0.031450063,1
0,4989,-0.023117262,1
0,4990,-0.0096170709,1
0,4991,0.041113181,1
0,4992,2.1130509,1
0,4993,3.2390538,1
0,4994,2.5576422,1
0,4995,2.3156721,1
0,4996,1.0033186,1
0,4997,0.84966324,1
0,4998,1.6319269,1
0,4999,1.4242787,1
0,5000,1.3158524,1
0,5001,0.99924424,1
0,5002,0.20781148,1
0,5003,-0.42103656,1
0,5004,-0.46503334,1
0,5005,-0.60489143,1
0,5006,-0.6477287,1
0,5007,-0.81837778,1
0,5008,-0.90049714,1
0,5009,-0.89675992,1
0,5010,-0.94460744,1
0,5011,-1.0835873,1
0,5012,-1.2033444,1
0,5013,-1.2250112,1
0,5014,-1.3277376,1
0,5015,-1.5290698,1
0,5016,-1.604899,1
0,5017,-1.6701252,1
0,5018,-1.8830349,1
0,5019,-1.9134538,1
0,5020,-1.9651992,1
0,5021,-2.0613577,1
0,5022,-2.0139337,1
0,5023,-1.9866672,1
0,5024,-1.7922721,1
0,5025,-1.580074,1
0,5026,-1.329047,1
0,5027,-0.89651814,1
0,5028,-0.55237603,1
0,5029,-0.26007503,1
0,5030,0.051493625,1
0,5031,0.33432175,1
0,5032,0.52700648,1
0,5033,0.63982191,1
0,5034,0.72894939,1
0,5035,0.74235551,1
0,5036,0.69689598,1
0,5037,0.70678671,1
0,5038,0.61881583,1
0,5039,0.59308291,1
0,5040,0.60875104,1
0,5041,0.56287954,1
0,5042,0.60347036,1
0,5043,0.53784661,1
0,5044,0.51812293,1
0,5045,0.59629696,1
0,5046,0.52432868,1
0,5047,0.50674142,1
0,5048,0.50123192,1
0,5049,0.481598,1
0,5050,0.47713123,1
0,5051,0.36448407,1
0,5052,0.42906321,1
0,5053,0.41800232,1
0,5054,0.33307746,1
0,5055,0.28346888,1
0,5056,0.26304588,1
0,5057,0.24960836,1
0,5058,0.16096889,1
0,5059,0.19426417,1
0,5060,0.16329789,1
0,5061,0.17884684,1
0,5062,0.076809831,1
0,5063,0.062740042,1
0,5064,0.281737,1
0,5065,0.44048912,1
0,5066,0.47879892,1
0,5067,0.50719613,1
0,5068,0.35508406,1
0,5069,0.16924946,1
0,5070,0.11046712,1
0,5071,0.021528654,1
0,5072,-0.085791634,1
0,5073,-0.13028596,1
0,5074,-0.11626912,1
0,5075,-0.18007087,1
0,5076,-0.16631974,1
0,5077,-0.14237232,1
0,5078,-0.11230398,1
0,5079,-0.083357236,1
0,5080,-0.15890054,1
0,5081,-0.062688992,1
0,5082,-0.057953761,1
0,5083,-0.15371915,1
0,5084,-0.10223231,1
0,5085,-0.11091866,1
0,5086,0.16933574,1
0,5087,0.31289248,1
0,5088,-0.19441323,-1
0,5089,-1.1007149,-1
0,5090,-1.3215892,-1
0,5091,-0.81488251,-1
0,5092,-0.34071735,-1
0,5093,-0.38421122,-1
0,5094,-0.62349815,-1
0,5095,-0.64220725,-1
0,5096,-0.55256542,-1
0,5097,-0.58374892,-1
0,5098,-0.67414434,-1
0,5099,-0.70857317,-1
0,5100,-0.73420062,-1
0,5101,-0.7671118,-1
0,5102,-0.74069201,-1
0,5103,-0.69700841,-1
0,5104,-0.73888966,-1
0,5105,-0.84594789,-1
0,5106,-0.90054696,-1
0,5107,-0.88965082,-1
0,5108,-0.88327915,-1
0,5109,-0.92932783,-1
0,5110,-1.0130808,-1
0,5111,-1.115139,-1
0,5112,-1.2142127,-1
0,5113,-1.2802051,-1
0,5114,-1.2905437,-1
0,5115,-1.29888,-1
0,5116,-1.4081455,-1
0,5117,-1.5917251,-1
0,5118,-1.6842284,-1
0,5119,-1.6191126,-1
0,5120,-1.557851,-1
0,5121,-1.6148191,-1
0,5122,-1.6866895,-1
0,5123,-1.6487589,-1
0,5124,-1.5526325,-1
0,5125,-1.4598861,-1
0,5126,-1.318757,-1
0,5127,-1.1241276,-1
0,5128,-0.9834759,-1
0,5129,-0.91710525,-1
0,5130,-0.76622029,-1
0,5131,-0.43579614,-1
0,5132,-0.062335482,-1
0,5133,0.14745944,-1
0,5134,0.20885403,-1
0,5135,0.29907317,-1
0,5136,0.4815012,-1
0,5137,0.61783845,-1
0,5138,0.6520107,-1
0,5139,0.70056931,-1
0,5140,0.82486954,-1
0,5141,0.92153559,-1
0,5142,0.97288062,-1
0,5143,1.0792456,-1
0,5144,1.1797202,-1
0,5145,1.1043549,-1
0,5146,0.92291354,-1
0,5147,0.86881536,-1
0,5148,0.92704209,-1
0,5149,0.92671744,-1
0,5150,0.88343312,-1
0,5151,0.89989121,-1
0,5152,0.89992495,-1
0,5153,0.84428614,-1
0,5154,0.87548042,-1
0,5155,0.98458243,-1
0,5156,0.91121158,-1
0,5157,0.64469009,-1
0,5158,0.54624229,-1
0,5159,0.7488074,-1
0,5160,0.90480019,-1
0,5161,0.76474744,-1
0,5162,0.56709375,-1
0,5163,0.63114909,-1
0,5164,0.91368603,-1
0,5165,1.1599834,-1
0,5166,1.2499887,-1
0,5167,1.2580716,-1
0,5168,1.293779,-1
0,5169,1.3502427,-1
0,5170,1.3011068,-1
0,5171,1.088284,-1
0,5172,0.86683333,-1
0,5173,0.81277952,-1
0,5174,0.85454896,-1
0,5175,0.81905006,-1
0,5176,0.76497783,-1
0,5177,0.87610327,-1
0,5178,1.0859015,-1
0,5179,1.1447178,-1
0,5180,1.0219842,-1
0,5181,0.92982741,-1
0,5182,0.9638794,-1
0,5183,1.0141616,-1
0,5184,0.73059393,1
0,5185,0.95465401,1
0,5186,2.7894027,1
0,5187,3.2344186,1
0,5188,2.150623,1
0,5189,0.90708836,1
0,5190,0.41094624,1
0,5191,0.84251916,1
0,5192,0.99018514,1
0,5193,0.91588143,1
0,5194,0.60915066,1
0,5195,0.25079411,1
0,5196,-0.42775694,1
0,5197,-0.73149665,1
0,5198,-0.67576141,1
0,5199,-0.92615471,1
0,5200,-0.94312642,1
0,5201,-0.99803908,1
0,5202,-1.0254685,1
0,5203,-1.1094105,1
0,5204,-1.2707569,1
0,5205,-1.1801884,1
0,5206,-1.4132684,1
0,5207,-1.5289884,1
0,5208,-1.4711502,1
0,5209,-1.6987964,1
0,5210,-1.6617326,1
0,5211,-1.7457081,1
0,5212,-1.9472569,1
0,5213,-1.9375065,1
0,5214,-2.0973895,1
0,5215,-2.0953513,1
0,5216,-1.8553922,1
0,5217,-1.8460876,1
0,5218,-1.7779234,1
0,5219,-1.202581,1
0,5220,-0.75234162,1
0,5221,-0.49988437,1
0,5222,-0.037612581,1
0,5223,0.31936744,1
0,5224,0.61618064,1
0,5225,0.74958163,1
0,5226,0.87424134,1
0,5227,1.0046299,1
0,5228,0.89485371,1
0,5229,0.98149708,1
0,5230,0.89402279,1
0,5231,0.69172868,1
0,5232,0.6479818,1
0,5233,0.58824562,1
0,5234,0.66833144,1
0,5235,0.66425224,1
0,5236,0.52641713,1
0,5237,0.54798041,1
0,5238,0.62124967,1
0,5239,0.56069211,1
0,5240,0.49561756,1
0,5241,0.48645276,1
0,5242,0.64269558,1
0,5243,0.51214309,1
0,5244,0.39921706,1
0,5245,0.50185492,1
0,5246,0.44900105,1
0,5247,0.3588213,1
0,5248,0.36320459,1
0,5249,0.36163423,1
0,5250,0.20057977,1
0,5251,0.2566303,1
0,5252,0.35495588,1
0,5253,0.16341288,1
0,5254,0.22643823,1
0,5255,0.1421098,1
0,5256,0.051816255,1
0,5257,0.33930872,1
0,5258,0.24507334,1
0,5259,0.53702864,1
0,5260,0.80713103,1
0,5261,0.63696255,1
0,5262,0.54241627,1
0,5263,0.36355807,1
0,5264,0.38020759,1
0,5265,0.090905298,1
0,5266,-0.060212628,1
0,5267,0.066960257,1
0,5268,-0.15598224,1
0,5269,-0.20973822,1
0,5270,-0.026553855,1
0,5271,-0.22865049,1
0,5272,-0.26106331,1
0,5273,-0.1606551,1
0,5274,-0.10491354,1
0,5275,-0.161476,1
0,5276,-0.20260718,1
0,5277,-0.12651805,1
0,5278,-0.11709868,1
0,5279,0.05895187,1
0,5280,0.59401433,1
0,5281,1.1537236,1
0,5282,2.6051702,1
0,5283,3.1965895,1
0,5284,2.0619099,1
0,5285,0.1933088,1
0,5286,-0.39215695,1
0,5287,0.77476198,1
0,5288,0.74411737,1
0,5289,0.52828631,1
0,5290,0.60695632,1
0,5291,0.075758462,1
0,5292,-0.16262867,1
0,5293,-0.75770482,1
0,5294,-0.82668801,1
0,5295,-0.90466799,1
0,5296,-0.86489703,1
0,5297,-0.92723404,1
0,5298,-1.0822416,1
0,5299,-1.0179055,1
0,5300,-1.0156871,1
0,5301,-1.2161342,1
0,5302,-1.3557418,1
0,5303,-1.3605295,1
0,5304,-1.5026603,1
0,5305,-1.6789171,1
0,5306,-1.7439553,1
0,5307,-1.8176574,1
0,5308,-1.9648344,1
0,5309,-1.9914343,1
0,5310,-2.1455117,1
0,5311,-2.0926588,1
0,5312,-1.8876264,1
0,5313,-1.9263239,1
0,5314,-1.707235,1
0,5315,-1.4208117,1
0,5316,-1.2455294,1
0,5317,-0.88839617,1
0,5318,-0.4777579,1
0,5319,-0.099044326,1
0,5320,0.18898706,1
0,5321,0.4565955,1
0,5322,0.68388928,1
0,5323,0.90009814,1
0,5324,0.94101132,1
0,5325,0.94947477,1
0,5326,0.99893277,1
0,5327,0.94897463,1
0,5328,0.82744347,1
0,5329,0.78173448,1
0,5330,0.71188769,1
0,5331,0.64823767,1
0,5332,0.69262451,1
0,5333,0.56480838,1
0,5334,0.49460019,1
0,5335,0.65125956,1
0,5336,0.58689289,1
0,5337,0.39271944,1
0,5338,0.46809317,1
0,5339,0.59618888,1
0,5340,0.48342542,1
0,5341,0.52306562,1
0,5342,0.5137537,1
0,5343,0.43378089,1
0,5344,0.33661455,1
0,5345,0.31448484,1
0,5346,0.41624216,1
0,5347,0.27971827,1
0,5348,0.21400447,1
0,5349,0.26661842,1
0,5350,0.43474294,1
0,5351,0.15539161,1
0,5352,0.21200508,1
0,5353,0.61498033,1
0,5354,0.71676817,1
0,5355,0.87342363,1
0,5356,0.75727531,1
0,5357,0.51954152,1
0,5358,0.54603085,1
0,5359,0.35220095,1
0,5360,0.24965577,1
0,5361,0.19693798,1
0,5362,0.091654066,1
0,5363,0.21048798,1
0,5364,-0.015256405,1
0,5365,0.095381521,1
0,5366,0.1220583,1
0,5367,-0.028834469,1
0,5368,0.05916219,1
0,5369,0.063779768,1
0,5370,0.062518328,1
0,5371,0.050870599,1
0,5372,-0.003989843,1
0,5373,0.054530579,1
0,5374,0.17163876,1
0,5375,0.11085684,1
0,5376,2.0394327,-1
0,5377,1.8832347,-1
0,5378,1.9093279,-1
0,5379,2.4715339,-1
0,5380,1.1181387,-1
0,5381,0.044438534,-1
0,5382,0.02378222,-1
0,5383,-0.1854629,-1
0,5384,-0.84122924,-1
0,5385,-1.210844,-1
0,5386,-1.1649628,-1
0,5387,-1.3305675,-1
0,5388,-1.4505416,-1
0,5389,-1.6214423,-1
0,5390,-1.5285523,-1
0,5391,-1.6564765,-1
0,5392,-1.8499284,-1
0,5393,-1.4444446,-1
0,5394,-1.8181468,-1
0,5395,-1.757509,-1
0,5396,-1.5500211,-1
0,5397,-2.0486198,-1
0,5398,-2.0674221,-1
0,5399,-1.7514358,-1
0,5400,-1.8899067,-1
0,5401,-1.9401666,-1
0,5402,-1.3923952,-1
0,5403,-1.2765232,-1
0,5404,-0.96957959,-1
0,5405,-0.81353676,-1
0,5406,-0.53408863,-1
0,5407,0.18649755,-1
0,5408,0.18891511,-1
0,5409,0.52785912,-1
0,5410,1.0165503,-1
0,5411,0.98695918,-1
0,5412,1.0381347,-1
0,5413,0.90506531,-1
0,5414,0.77315071,-1
0,5415,1.1705092,-1
0,5416,0.52910902,-1
0,5417,0.65706782,-1
0,5418,0.67812941,-1
0,5419,0.5179102,-1
0,5420,0.54165506,-1
0,5421,0.47090802,-1
0,5422,0.46793846,-1
0,5423,0.59913278,-1
0,5424,0.47387851,-1
0,5425,0.50290558,-1
0,5426,0.65981579,-1
0,5427,0.38413318,-1
0,5428,0.68218534,-1
0,5429,0.75604449,-1
0,5430,0.61435762,-1
0,5431,0.98529284,-1
0,5432,1.0581193,-1
0,5433,0.85157441,-1
0,5434,0.53874142,-1
0,5435,0.90249501,-1
0,5436,0.98809047,-1
0,5437,0.65468729,-1
0,5438,0.58384122,-1
0,5439,0.22025055,-1
0,5440,0.16772921,-1
0,5441,-0.0078476486,-1
0,5442,0.047374143,-1
0,5443,-0.13176619,-1
0,5444,-0.060787931,-1
0,5445,0.077160185,-1
0,5446,-0.29065653,-1
0,5447,-0.096476165,-1
0,5448,-0.17559459,-1
0,5449,-0.17683834,-1
0,5450,-0.26148476,-1
0,5451,-0.30170242,-1
0,5452,-0.15769403,-1
0,5453,-0.16105487,-1
0,5454,-0.27517994,-1
0,5455,-0.37618733,-1
0,5456,-0.10732506,-1
0,5457,-0.064679581,-1
0,5458,-0.2052363,-1
0,5459,-0.087677274,-1
0,5460,-0.08637962,-1
0,5461,-0.088805668,-1
0,5462,0.090496632,-1
0,5463,0.058145382,-1
0,5464,0.00035112091,-1
0,5465,0.26841067,-1
0,5466,0.55995867,-1
0,5467,0.52745406,-1
0,5468,0.51000214,-1
0,5469,0.67704666,-1
0,5470,1.2486477,-1
0,5471,1.3726073,-1
0,5472,0.46737906,-1
0,5473,0.34010397,-1
0,5474,0.35138992,-1
0,5475,0.80988876,-1
0,5476,1.2934283,-1
0,5477,1.7335345,-1
0,5478,2.1628923,-1
0,5479,2.1414868,-1
0,5480,1.6615111,-1
0,5481,1.1206418,-1
0,5482,0.45783849,-1
0,5483,-0.17802412,-1
0,5484,-0.22524688,-1
0,5485,0.03250859,-1
0,5486,-0.1168657,-1
0,5487,-0.41491491,-1
0,5488,-0.35638904,-1
0,5489,-0.2509871,-1
0,5490,-0.36715659,-1
0,5491,-0.33877526,-1
0,5492,-0.081856181,-1
0,5493,-0.12102792,-1
0,5494,-0.58705515,-1
0,5495,-0.88692107,-1
0,5496,-0.77319756,-1
0,5497,-0.70316572,-1
0,5498,-0.87018086,-1
0,5499,-0.98921601,-1
0,5500,-1.031618,-1
0,5501,-1.1907084,-1
0,5502,-1.3504713,-1
0,5503,-1.315321,-1
0,5504,-1.2073897,-1
0,5505,-1.1992221,-1
0,5506,-1.2519025,-1
0,5507,-1.3806293,-1
0,5508,-1.6770096,-1
0,5509,-1.9131597,-1
0,5510,-1.8040762,-1
0,5511,-1.6385741,-1
0,5512,-1.802632,-1
0,5513,-1.9967517,-1
0,5514,-1.816844,-1
0,5515,-1.5127925,-1
0,5516,-1.4638601,-1
0,5517,-1.5593601,-1
0,5518,-1.5239157,-1
0,5519,-1.3369984,-1
0,5520,-1.1101437,-1
0,5521,-0.89923946,-1
0,5522,-0.7352989,-1
0,5523,-0.62115511,-1
0,5524,-0.45901969,-1
0,5525,-0.19245738,-1
0,5526,0.054817614,-1
0,5527,0.20428428,-1
0,5528,0.32399129,-1
0,5529,0.41063033,-1
0,5530,0.45174631,-1
0,5531,0.55410401,-1
0,5532,0.71178704,-1
0,5533,0.77912725,-1
0,5534,0.7638632,-1
0,5535,0.77773186,-1
0,5536,0.81778039,-1
0,5537,0.85281043,-1
0,5538,0.86878147,-1
0,5539,0.82122291,-1
0,5540,0.77448351,-1
0,5541,0.81832998,-1
0,5542,0.83964346,-1
0,5543,0.7881012,-1
0,5544,0.82925862,-1
0,5545,0.90610556,-1
0,5546,0.78985702,-1
0,5547,0.59219154,-1
0,5548,0.51037025,-1
0,5549,0.48805409,-1
0,5550,0.5551999,-1
0,5551,0.76294419,-1
0,5552,0.90934581,-1
0,5553,0.96187994,-1
0,5554,1.0330292,-1
0,5555,0.8952406,-1
0,5556,0.54303703,-1
0,5557,0.48404181,-1
0,5558,0.67663296,-1
0,5559,0.5949164,-1
0,5560,0.4540119,-1
0,5561,0.72175261,-1
0,5562,0.98346048,-1
0,5563,0.75150705,-1
0,5564,0.49768455,-1
0,5565,0.71987873,-1
0,5566,0.91141946,-1
0,5567,0.49387098,-1
0,5568,0.64275558,1
0,5569,1.9652219,1
0,5570,2.9047617,1
0,5571,2.3393423,1
0,5572,0.79156126,1
0,5573,0.15917504,1
0,5574,0.92527794,1
0,5575,1.2314808,1
0,5576,1.1813325,1
0,5577,1.3698903,1
0,5578,0.87052383,1
0,5579,-0.17245692,1
0,5580,-0.71374715,1
0,5581,-0.66787891,1
0,5582,-0.88154185,1
0,5583,-0.88056139,1
0,5584,-0.93676769,1
0,5585,-1.0415576,1
0,5586,-1.1711792,1
0,5587,-1.0859123,1
0,5588,-1.124883,1
0,5589,-1.3186066,1
0,5590,-1.4501196,1
0,5591,-1.4573616,1
0,5592,-1.4785816,1
0,5593,-1.6753872,1
0,5594,-1.7290109,1
0,5595,-2.0020134,1
0,5596,-2.0563651,1
0,5597,-2.0999205,1
0,5598,-2.1468928,1
0,5599,-2.0228336,1
0,5600,-2.0071527,1
0,5601,-2.0073806,1
0,5602,-1.5996686,1
0,5603,-1.2477127,1
0,5604,-1.0342535,1
0,5605,-0.58500925,1
0,5606,-0.23800356,1
0,5607,0.048785229,1
0,5608,0.27357824,1
0,5609,0.41882652,1
0,5610,0.6427489,1
0,5611,0.68399842,1
0,5612,0.703198,1
0,5613,0.78272938,1
0,5614,0.75175976,1
0,5615,0.63880201,1
0,5616,0.58432399,1
0,5617,0.66918217,1
0,5618,0.63540721,1
0,5619,0.5926714,1
0,5620,0.62951558,1
0,5621,0.63588582,1
0,5622,0.5999117,1
0,5623,0.51703759,1
0,5624,0.62038759,1
0,5625,0.54816639,1
0,5626,0.59089917,1
0,5627,0.48709892,1
0,5628,0.51182843,1
0,5629,0.51280847,1
0,5630,0.41523838,1
0,5631,0.38768122,1
0,5632,0.32056127,1
0,5633,0.44472826,1
0,5634,0.34956381,1
0,5635,0.35382241,1
0,5636,0.46867739,1
0,5637,0.33019947,1
0,5638,0.40549274,1
0,5639,0.42792223,1
0,5640,0.41080052,1
0,5641,0.5894265,1
0,5642,0.76784519,1
0,5643,0.86361692,1
0,5644,0.62072789,1
0,5645,0.52610389,1
0,5646,0.4397664,1
0,5647,0.13778017,1
0,5648,0.1135003,1
0,5649,0.10893713,1
0,5650,0.13049494,1
0,5651,0.061247792,1
0,5652,0.078585303,1
0,5653,0.077828845,1
0,5654,0.079985449,1
0,5655,-0.10907211,1
0,5656,0.065845599,1
0,5657,0.10818746,1
0,5658,-0.047369804,1
0,5659,-0.098171324,1
0,5660,-0.021278626,1
0,5661,0.092690157,1
0,5662,0.12069088,1
0,5663,0.34982908,1
0,5664,0.50691007,1
0,5665,1.6370345,1
0,5666,3.1547647,1
0,5667,1.7402818,1
0,5668,1.8124405,1
0,5669,0.6171909,1
0,5670,-1.3848904,1
0,5671,-0.25466994,1
0,5672,0.50182027,1
0,5673,0.15305764,1
0,5674,-0.075266957,1
0,5675,0.10883743,1
0,5676,-0.20001468,1
0,5677,-0.71551966,1
0,5678,-0.94438292,1
0,5679,-0.79628119,1
0,5680,-0.97295135,1
0,5681,-1.1058692,1
0,5682,-1.1303803,1
0,5683,-1.3637825,1
0,5684,-1.1810593,1
0,5685,-1.350292,1
0,5686,-1.6052023,1
0,5687,-1.4906852,1
0,5688,-1.6388467,1
0,5689,-1.7028306,1
0,5690,-1.9761219,1
0,5691,-1.9501127,1
0,5692,-1.860538,1
0,5693,-2.3427803,1
0,5694,-1.9823785,1
0,5695,-1.5832168,1
0,5696,-1.8470533,1
0,5697,-1.6819993,1
0,5698,-1.460829,1
0,5699,-1.297685,1
0,5700,-0.55792946,1
0,5701,-0.38096737,1
0,5702,-0.31140389,1
0,5703,0.35315849,1
0,5704,0.31504798,1
0,5705,0.62621748,1
0,5706,1.0197581,1
0,5707,0.81318743,1
0,5708,1.0338337,1
0,5709,1.0255161,1
0,5710,1.0324445,1
0,5711,1.1787538,1
0,5712,0.74439326,1
0,5713,0.81744116,1
0,5714,0.88087733,1
0,5715,0.57845734,1
0,5716,0.78842673,1
0,5717,0.63660987,1
0,5718,0.41239616,1
0,5719,0.61823917,1
0,5720,0.64190446,1
0,5721,0.64007398,1
0,5722,0.48912123,1
0,5723,0.41201203,1
0,5724,0.67667731,1
0,5725,0.52389415,1
0,5726,0.49946967,1
0,5727,0.34044937,1
0,5728,0.36466982,1
0,5729,0.54217614,1
0,5730,0.37836208,1
0,5731,0.46030085,1
0,5732,0.23009651,1
0,5733,0.49426611,1
0,5734,0.3347966,1
0,5735,0.15980891,1
0,5736,0.67293695,1
0,5737,0.77501505,1
0,5738,0.97858472,1
0,5739,0.82089194,1
0,5740,0.55729331,1
0,5741,0.69978204,1
0,5742,0.50512919,1
0,5743,0.30667784,1
0,5744,0.17112097,1
0,5745,0.1158474,1
0,5746,0.13145495,1
0,5747,0.16102571,1
0,5748,0.0099787414,1
0,5749,0.10865763,1
0,5750,0.048930083,1
0,5751,-0.014351457,1
0,5752,0.031855509,1
0,5753,0.1392105,1
0,5754,0.1782655,1
0,5755,-0.10442321,1
0,5756,0.10132481,1
0,5757,0.21106243,1
0,5758,0.041465507,1
0,5759,0.2030291,1
0,5760,0.59591868,1
0,5761,1.3137186,1
0,5762,2.7465019,1
0,5763,4.1991449,1
0,5764,2.7199107,1
0,5765,1.715197,1
0,5766,0.15929885,1
0,5767,-0.56274529,1
0,5768,0.9384163,1
0,5769,1.0180912,1
0,5770,0.69694232,1
0,5771,0.75985712,1
0,5772,0.74706274,1
0,5773,0.025409363,1
0,5774,-0.39747878,1
0,5775,-0.69259959,1
0,5776,-0.67263826,1
0,5777,-0.70592656,1
0,5778,-0.83698358,1
0,5779,-0.85410331,1
0,5780,-1.0416322,1
0,5781,-0.97179172,1
0,5782,-1.1959011,1
0,5783,-1.4385469,1
0,5784,-1.2723357,1
0,5785,-1.4633253,1
0,5786,-1.5424214,1
0,5787,-1.5670811,1
0,5788,-1.7616535,1
0,5789,-1.8428245,1
0,5790,-1.6366834,1
0,5791,-1.7920051,1
0,5792,-1.8138444,1
0,5793,-1.5141021,1
0,5794,-1.4983458,1
0,5795,-1.2834369,1
0,5796,-1.0092683,1
0,5797,-0.63407808,1
0,5798,-0.21875523,1
0,5799,-0.063673391,1
0,5800,0.18070968,1
0,5801,0.40228251,1
0,5802,0.68322934,1
0,5803,0.59287,1
0,5804,0.94003279,1
0,5805,0.98085243,1
0,5806,0.77388907,1
0,5807,0.87522053,1
0,5808,0.7783658,1
0,5809,0.7959889,1
0,5810,0.68323507,1
0,5811,0.54214163,1
0,5812,0.64059169,1
0,5813,0.50922627,1
0,5814,0.49928852,1
0,5815,0.55352849,1
0,5816,0.47593541,1
0,5817,0.60663324,1
0,5818,0.54055945,1
0,5819,0.52308622,1
0,5820,0.34662553,1
0,5821,0.42162988,1
0,5822,0.39821562,1
0,5823,0.26746326,1
0,5824,0.36036078,1
0,5825,0.29793309,1
0,5826,0.21546029,1
0,5827,0.11282313,1
0,5828,0.23442048,1
0,5829,0.064902354,1
0,5830,0.086005352,1
0,5831,0.11529257,1
0,5832,0.40376048,1
0,5833,0.64651147,1
0,5834,0.5343092,1
0,5835,0.57351477,1
0,5836,0.35302903,1
0,5837,0.26353982,1
0,5838,0.092057865,1
0,5839,-0.17175339,1
0,5840,-0.16070163,1
0,5841,-0.24940706,1
0,5842,-0.12360075,1
0,5843,-0.41908272,1
0,5844,-0.3202235,1
0,5845,-0.22563804,1
0,5846,-0.41717749,1
0,5847,-0.29645393,1
0,5848,-0.42934136,1
0,5849,-0.37286401,1
0,5850,-0.38688693,1
0,5851,-0.53091694,1
0,5852,-0.38205249,1
0,5853,-0.45981887,1
0,5854,-0.47662155,1
0,5855,-0.29426952,1
0,5856,1.2215121,-1
0,5857,3.5215769,-1
0,5858,3.6276133,-1
0,5859,3.0769932,-1
0,5860,2.0356967,-1
0,5861,-0.13592834,-1
0,5862,1.2264337,-1
0,5863,0.74404578,-1
0,5864,0.2093786,-1
0,5865,0.65520998,-1
0,5866,-0.21036739,-1
0,5867,-0.82743492,-1
0,5868,-1.0251441,-1
0,5869,-1.1013262,-1
0,5870,-1.022982,-1
0,5871,-1.4627243,-1
0,5872,-1.436744,-1
0,5873,-1.4114183,-1
0,5874,-1.6730853,-1
0,5875,-1.8698694,-1
0,5876,-1.9964448,-1
0,5877,-2.1150898,-1
0,5878,-2.1980117,-1
0,5879,-2.0530214,-1
0,5880,-2.0658047,-1
0,5881,-1.7571801,-1
0,5882,-1.6556366,-1
0,5883,-0.87854252,-1
0,5884,-0.75572895,-1
0,5885,-0.51665345,-1
0,5886,0.099858207,-1
0,5887,0.077720141,-1
0,5888,0.4159264,-1
0,5889,0.42419506,-1
0,5890,0.69321939,-1
0,5891,0.67814222,-1
0,5892,0.47881179,-1
0,5893,0.62165802,-1
0,5894,0.58121424,-1
0,5895,0.24988203,-1
0,5896,0.41374225,-1
0,5897,0.34924394,-1
0,5898,0.34486122,-1
0,5899,0.29218133,-1
0,5900,0.41368828,-1
0,5901,0.091295443,-1
0,5902,0.48129658,-1
0,5903,0.19183897,-1
0,5904,0.32476525,-1
0,5905,-0.05405613,-1
0,5906,0.2627474,-1
0,5907,0.12352279,-1
0,5908,0.029316117,-1
0,5909,0.040023614,-1
0,5910,0.15409221,-1
0,5911,0.14085676,-1
0,5912,-0.1262528,-1
0,5913,0.0062633122,-1
0,5914,0.109657,-1
0,5915,0.031423292,-1
0,5916,-0.032844966,-1
0,5917,-0.0056070895,-1
0,5918,-0.044973055,-1
0,5919,0.033773535,-1
0,5920,-0.030621995,-1
0,5921,-0.0059868958,-1
0,5922,-0.035922891,-1
0,5923,0.023524711,-1
0,5924,0.010005788,-1
0,5925,0.010863771,-1
0,5926,0.050329092,-1
0,5927,0.046130773,-1
